,x_val,y_val,x_val,y_val,x_val,y_val,x_val,y_val,x_val,y_val,x_val,y_val,x_val,y_val,x_val,y_val,x_val,y_val,x_val,y_val,x_val,y_val,x_val,y_val,x_val,y_val,x_val,y_val
0,0.0,1.6375730045425048,0.0,1.236534717715769,0.0,0.6349772874756652,0.0,1.4704737183646983,0.0,0.8020765736534717,0.0,0.46787800129785856
1,0.0031897067624177145,1.6375730045425048,0.0031897067624177145,1.236534717715769,0.0031897067624177145,0.6015574302401038,0.0031897067624177145,1.4704737183646983,0.0031897067624177145,0.7686567164179104,0.0031897067624177145,0.46787800129785856
2,0.006379413524835429,1.6375730045425048,0.006379413524835429,1.236534717715769,0.006379413524835429,0.6015574302401038,0.006379413524835429,1.4704737183646983,0.006379413524835429,0.7018170019467878,0.006379413524835429,0.46787800129785856
3,0.009569120287253144,1.6375730045425048,0.009569120287253144,1.236534717715769,0.009569120287253144,0.5681375730045425,0.009569120287253144,1.4704737183646983,0.009569120287253144,0.6683971447112265,0.009569120287253144,0.46787800129785856
4,0.012758827049670858,1.6041531473069435,0.012758827049670858,1.2699545749513304,0.012758827049670858,0.5681375730045425,0.012758827049670858,1.5038935756002596,0.012758827049670858,0.6349772874756652,0.012758827049670858,0.46787800129785856
5,0.01594853381208857,1.6041531473069435,0.01594853381208857,1.2699545749513304,0.01594853381208857,0.5681375730045425,0.01594853381208857,1.5038935756002596,0.01594853381208857,0.6015574302401038,0.01594853381208857,0.46787800129785856
6,0.019138240574506287,1.6041531473069435,0.019138240574506287,1.2699545749513304,0.019138240574506287,0.5347177157689812,0.019138240574506287,1.5038935756002596,0.019138240574506287,0.5347177157689812,0.019138240574506287,0.46787800129785856
7,0.022327947336924,1.6041531473069435,0.022327947336924,1.3033744321868916,0.022327947336924,0.5347177157689812,0.022327947336924,1.5038935756002596,0.022327947336924,0.5012978585334199,0.022327947336924,0.46787800129785856
8,0.025517654099341716,1.6041531473069435,0.025517654099341716,1.336794289422453,0.025517654099341716,0.5347177157689812,0.025517654099341716,1.5038935756002596,0.025517654099341716,0.46787800129785856,0.025517654099341716,0.46787800129785856
9,0.02870736086175943,1.5707332900713822,0.02870736086175943,1.3702141466580142,0.02870736086175943,0.5347177157689812,0.02870736086175943,1.5038935756002596,0.02870736086175943,0.4344581440622972,0.02870736086175943,0.46787800129785856
10,0.03189706762417714,1.5707332900713822,0.03189706762417714,1.3702141466580142,0.03189706762417714,0.5012978585334199,0.03189706762417714,1.5038935756002596,0.03189706762417714,0.40103828682673587,0.03189706762417714,0.46787800129785856
11,0.035086774386594854,1.5707332900713822,0.035086774386594854,1.3702141466580142,0.035086774386594854,0.5012978585334199,0.035086774386594854,1.5038935756002596,0.035086774386594854,0.3676184295911746,0.035086774386594854,0.46787800129785856
12,0.038276481149012574,1.537313432835821,0.038276481149012574,1.3702141466580142,0.038276481149012574,0.5012978585334199,0.038276481149012574,1.5038935756002596,0.038276481149012574,0.3676184295911746,0.038276481149012574,0.4344581440622972
13,0.04146618791143029,1.537313432835821,0.04146618791143029,1.3702141466580142,0.04146618791143029,0.5012978585334199,0.04146618791143029,1.5038935756002596,0.04146618791143029,0.33419857235561323,0.04146618791143029,0.4344581440622972
14,0.044655894673848,1.5038935756002596,0.044655894673848,1.3702141466580142,0.044655894673848,0.5012978585334199,0.044655894673848,1.5038935756002596,0.044655894673848,0.33419857235561323,0.044655894673848,0.4344581440622972
15,0.04784560143626571,1.5038935756002596,0.04784560143626571,1.3702141466580142,0.04784560143626571,0.5012978585334199,0.04784560143626571,1.5038935756002596,0.04784560143626571,0.3007787151200519,0.04784560143626571,0.4344581440622972
16,0.05103530819868343,1.4704737183646983,0.05103530819868343,1.3702141466580142,0.05103530819868343,0.5012978585334199,0.05103530819868343,1.5038935756002596,0.05103530819868343,0.3007787151200519,0.05103530819868343,0.4344581440622972
17,0.054225014961101145,1.4704737183646983,0.054225014961101145,1.3702141466580142,0.054225014961101145,0.46787800129785856,0.054225014961101145,1.5038935756002596,0.054225014961101145,0.2673588578844906,0.054225014961101145,0.4344581440622972
18,0.05741472172351886,1.4704737183646983,0.05741472172351886,1.3702141466580142,0.05741472172351886,0.46787800129785856,0.05741472172351886,1.5038935756002596,0.05741472172351886,0.2673588578844906,0.05741472172351886,0.46787800129785856
19,0.06060442848593657,1.437053861129137,0.06060442848593657,1.3702141466580142,0.06060442848593657,0.46787800129785856,0.06060442848593657,1.5038935756002596,0.06060442848593657,0.23393900064892928,0.06060442848593657,0.46787800129785856
20,0.06379413524835428,1.437053861129137,0.06379413524835428,1.3702141466580142,0.06379413524835428,0.46787800129785856,0.06379413524835428,1.5038935756002596,0.06379413524835428,0.23393900064892928,0.06379413524835428,0.46787800129785856
21,0.066983842010772,1.437053861129137,0.066983842010772,1.3702141466580142,0.066983842010772,0.46787800129785856,0.066983842010772,1.5038935756002596,0.066983842010772,0.20051914341336793,0.066983842010772,0.46787800129785856
22,0.07017354877318971,1.4036340038935755,0.07017354877318971,1.3702141466580142,0.07017354877318971,0.46787800129785856,0.07017354877318971,1.5038935756002596,0.07017354877318971,0.20051914341336793,0.07017354877318971,0.46787800129785856
23,0.07336325553560744,1.4036340038935755,0.07336325553560744,1.3702141466580142,0.07336325553560744,0.4344581440622972,0.07336325553560744,1.5038935756002596,0.07336325553560744,0.16709928617780662,0.07336325553560744,0.46787800129785856
24,0.07655296229802515,1.4036340038935755,0.07655296229802515,1.3702141466580142,0.07655296229802515,0.4344581440622972,0.07655296229802515,1.537313432835821,0.07655296229802515,0.16709928617780662,0.07655296229802515,0.46787800129785856
25,0.07974266906044286,1.4036340038935755,0.07974266906044286,1.3702141466580142,0.07974266906044286,0.4344581440622972,0.07974266906044286,1.537313432835821,0.07974266906044286,0.16709928617780662,0.07974266906044286,0.46787800129785856
26,0.08293237582286057,1.4036340038935755,0.08293237582286057,1.3702141466580142,0.08293237582286057,0.4344581440622972,0.08293237582286057,1.537313432835821,0.08293237582286057,0.1336794289422453,0.08293237582286057,0.46787800129785856
27,0.08612208258527829,1.3702141466580142,0.08612208258527829,1.3702141466580142,0.08612208258527829,0.4344581440622972,0.08612208258527829,1.5707332900713822,0.08612208258527829,0.1336794289422453,0.08612208258527829,0.46787800129785856
28,0.089311789347696,1.3702141466580142,0.089311789347696,0.9691758598312784,0.089311789347696,0.4344581440622972,0.089311789347696,1.5707332900713822,0.089311789347696,0.10025957170668397,0.089311789347696,0.46787800129785856
29,0.09250149611011371,1.3702141466580142,0.09250149611011371,0.7686567164179104,0.09250149611011371,0.4344581440622972,0.09250149611011371,1.6041531473069435,0.09250149611011371,0.10025957170668397,0.09250149611011371,0.46787800129785856
30,0.09569120287253143,1.3702141466580142,0.09569120287253143,0.7018170019467878,0.09569120287253143,0.4344581440622972,0.09569120287253143,1.6041531473069435,0.09569120287253143,0.10025957170668397,0.09569120287253143,0.46787800129785856
31,0.09888090963494914,1.3702141466580142,0.09888090963494914,0.6015574302401038,0.09888090963494914,0.4344581440622972,0.09888090963494914,1.6375730045425048,0.09888090963494914,0.06683971447112265,0.09888090963494914,0.46787800129785856
32,0.10207061639736686,1.3702141466580142,0.10207061639736686,0.20051914341336793,0.10207061639736686,0.4344581440622972,0.10207061639736686,1.6375730045425048,0.10207061639736686,0.06683971447112265,0.10207061639736686,0.46787800129785856
33,0.10526032315978458,1.3702141466580142,0.10526032315978458,0.10025957170668397,0.10526032315978458,0.4344581440622972,0.10526032315978458,1.6375730045425048,0.10526032315978458,0.06683971447112265,0.10526032315978458,0.46787800129785856
34,0.10845002992220229,1.3702141466580142,0.10845002992220229,0.033419857235561325,0.10845002992220229,0.4344581440622972,0.10845002992220229,1.6375730045425048,0.10845002992220229,0.06683971447112265,0.10845002992220229,0.46787800129785856
35,0.11163973668462,1.3702141466580142,0.11163973668462,0.033419857235561325,0.11163973668462,0.4344581440622972,0.11163973668462,1.6375730045425048,0.11163973668462,0.033419857235561325,0.11163973668462,0.46787800129785856
36,0.11482944344703772,1.336794289422453,0.11482944344703772,0.06683971447112265,0.11482944344703772,0.4344581440622972,0.11482944344703772,1.6375730045425048,0.11482944344703772,0.033419857235561325,0.11482944344703772,0.46787800129785856
37,0.11801915020945543,1.336794289422453,0.11801915020945543,0.06683971447112265,0.11801915020945543,0.4344581440622972,0.11801915020945543,1.6375730045425048,0.11801915020945543,0.033419857235561325,0.11801915020945543,0.20051914341336793
38,0.12120885697187314,1.336794289422453,0.12120885697187314,0.1336794289422453,0.12120885697187314,0.4344581440622972,0.12120885697187314,1.6375730045425048,0.12120885697187314,0.033419857235561325,0.12120885697187314,0.16709928617780662
39,0.12439856373429085,1.336794289422453,0.12439856373429085,0.16709928617780662,0.12439856373429085,0.4344581440622972,0.12439856373429085,1.6375730045425048,0.12439856373429085,0.033419857235561325,0.12439856373429085,0.1336794289422453
40,0.12758827049670857,1.336794289422453,0.12758827049670857,0.2673588578844906,0.12758827049670857,0.4344581440622972,0.12758827049670857,1.6375730045425048,0.12758827049670857,0.033419857235561325,0.12758827049670857,0.10025957170668397
41,0.1307779772591263,1.336794289422453,0.1307779772591263,0.40103828682673587,0.1307779772591263,0.4344581440622972,0.1307779772591263,1.6375730045425048,0.1307779772591263,0.033419857235561325,0.1307779772591263,0.06683971447112265
42,0.133967684021544,1.336794289422453,0.133967684021544,0.6015574302401038,0.133967684021544,0.4344581440622972,0.133967684021544,1.6375730045425048,0.133967684021544,0.033419857235561325,0.133967684021544,0.06683971447112265
43,0.13715739078396172,1.336794289422453,0.13715739078396172,0.8020765736534717,0.13715739078396172,0.4344581440622972,0.13715739078396172,1.6375730045425048,0.13715739078396172,0.033419857235561325,0.13715739078396172,0.033419857235561325
44,0.14034709754637942,1.336794289422453,0.14034709754637942,1.036015574302401,0.14034709754637942,0.4344581440622972,0.14034709754637942,1.6375730045425048,0.14034709754637942,0.033419857235561325,0.14034709754637942,0.06683971447112265
45,0.14353680430879714,1.336794289422453,0.14353680430879714,1.1028552887735237,0.14353680430879714,0.4344581440622972,0.14353680430879714,1.6375730045425048,0.14353680430879714,0.033419857235561325,0.14353680430879714,0.06683971447112265
46,0.14672651107121487,1.336794289422453,0.14672651107121487,1.136275146009085,0.14672651107121487,0.4344581440622972,0.14672651107121487,1.6375730045425048,0.14672651107121487,0.033419857235561325,0.14672651107121487,0.10025957170668397
47,0.14991621783363257,1.336794289422453,0.14991621783363257,1.1696950032446463,0.14991621783363257,0.4344581440622972,0.14991621783363257,1.6375730045425048,0.14991621783363257,0.033419857235561325,0.14991621783363257,0.1336794289422453
48,0.1531059245960503,1.336794289422453,0.1531059245960503,1.1696950032446463,0.1531059245960503,0.4344581440622972,0.1531059245960503,1.6375730045425048,0.1531059245960503,0.033419857235561325,0.1531059245960503,0.16709928617780662
49,0.156295631358468,1.336794289422453,0.156295631358468,1.1696950032446463,0.156295631358468,0.4344581440622972,0.156295631358468,1.6375730045425048,0.156295631358468,0.033419857235561325,0.156295631358468,0.16709928617780662
50,0.15948533812088572,1.3702141466580142,0.15948533812088572,1.2031148604802075,0.15948533812088572,0.4344581440622972,0.15948533812088572,1.6375730045425048,0.15948533812088572,0.033419857235561325,0.15948533812088572,0.23393900064892928
51,0.16267504488330342,1.3702141466580142,0.16267504488330342,1.2031148604802075,0.16267504488330342,0.46787800129785856,0.16267504488330342,1.6041531473069435,0.16267504488330342,0.033419857235561325,0.16267504488330342,0.2673588578844906
52,0.16586475164572115,1.3702141466580142,0.16586475164572115,1.2031148604802075,0.16586475164572115,0.46787800129785856,0.16586475164572115,1.5707332900713822,0.16586475164572115,0.033419857235561325,0.16586475164572115,0.3007787151200519
53,0.16905445840813885,1.3702141466580142,0.16905445840813885,1.236534717715769,0.16905445840813885,0.46787800129785856,0.16905445840813885,1.5707332900713822,0.16905445840813885,0.033419857235561325,0.16905445840813885,0.33419857235561323
54,0.17224416517055657,1.3702141466580142,0.17224416517055657,1.236534717715769,0.17224416517055657,0.46787800129785856,0.17224416517055657,1.537313432835821,0.17224416517055657,0.033419857235561325,0.17224416517055657,0.3676184295911746
55,0.1754338719329743,1.3702141466580142,0.1754338719329743,1.236534717715769,0.1754338719329743,0.46787800129785856,0.1754338719329743,1.537313432835821,0.1754338719329743,0.033419857235561325,0.1754338719329743,0.40103828682673587
56,0.178623578695392,1.3702141466580142,0.178623578695392,1.2699545749513304,0.178623578695392,0.46787800129785856,0.178623578695392,1.5038935756002596,0.178623578695392,0.033419857235561325,0.178623578695392,0.4344581440622972
57,0.18181328545780973,1.3702141466580142,0.18181328545780973,1.2699545749513304,0.18181328545780973,0.46787800129785856,0.18181328545780973,1.5038935756002596,0.18181328545780973,0.033419857235561325,0.18181328545780973,0.4344581440622972
58,0.18500299222022742,1.3702141466580142,0.18500299222022742,1.2699545749513304,0.18500299222022742,0.46787800129785856,0.18500299222022742,1.4704737183646983,0.18500299222022742,0.033419857235561325,0.18500299222022742,0.4344581440622972
59,0.18819269898264515,1.3702141466580142,0.18819269898264515,1.2699545749513304,0.18819269898264515,0.46787800129785856,0.18819269898264515,1.4704737183646983,0.18819269898264515,0.033419857235561325,0.18819269898264515,0.4344581440622972
60,0.19138240574506285,1.3702141466580142,0.19138240574506285,1.2699545749513304,0.19138240574506285,0.46787800129785856,0.19138240574506285,1.4704737183646983,0.19138240574506285,0.033419857235561325,0.19138240574506285,0.4344581440622972
61,0.19457211250748058,1.3702141466580142,0.19457211250748058,1.2699545749513304,0.19457211250748058,0.46787800129785856,0.19457211250748058,1.4704737183646983,0.19457211250748058,0.033419857235561325,0.19457211250748058,0.4344581440622972
62,0.19776181926989828,1.3702141466580142,0.19776181926989828,1.3033744321868916,0.19776181926989828,0.46787800129785856,0.19776181926989828,1.4704737183646983,0.19776181926989828,0.033419857235561325,0.19776181926989828,0.4344581440622972
63,0.200951526032316,1.3702141466580142,0.200951526032316,1.3033744321868916,0.200951526032316,0.46787800129785856,0.200951526032316,1.4704737183646983,0.200951526032316,0.033419857235561325,0.200951526032316,0.4344581440622972
64,0.20414123279473373,1.3702141466580142,0.20414123279473373,1.3033744321868916,0.20414123279473373,0.46787800129785856,0.20414123279473373,1.4704737183646983,0.20414123279473373,0.033419857235561325,0.20414123279473373,0.4344581440622972
65,0.20733093955715143,1.3702141466580142,0.20733093955715143,1.336794289422453,0.20733093955715143,0.46787800129785856,0.20733093955715143,1.4704737183646983,0.20733093955715143,0.033419857235561325,0.20733093955715143,0.4344581440622972
66,0.21052064631956915,1.3702141466580142,0.21052064631956915,1.336794289422453,0.21052064631956915,0.46787800129785856,0.21052064631956915,1.4704737183646983,0.21052064631956915,0.033419857235561325,0.21052064631956915,0.4344581440622972
67,0.21371035308198685,1.3702141466580142,0.21371035308198685,1.336794289422453,0.21371035308198685,0.46787800129785856,0.21371035308198685,1.4704737183646983,0.21371035308198685,0.033419857235561325,0.21371035308198685,0.4344581440622972
68,0.21690005984440458,1.3702141466580142,0.21690005984440458,1.3702141466580142,0.21690005984440458,0.46787800129785856,0.21690005984440458,1.4704737183646983,0.21690005984440458,0.033419857235561325,0.21690005984440458,0.4344581440622972
69,0.22008976660682228,0.6349772874756652,0.22008976660682228,1.3702141466580142,0.22008976660682228,0.46787800129785856,0.22008976660682228,1.4704737183646983,0.22008976660682228,0.033419857235561325,0.22008976660682228,0.4344581440622972
70,0.22327947336924,0.5681375730045425,0.22327947336924,1.4036340038935755,0.22327947336924,0.46787800129785856,0.22327947336924,1.4704737183646983,0.22327947336924,0.06683971447112265,0.22327947336924,0.4344581440622972
71,0.2264691801316577,0.5012978585334199,0.2264691801316577,1.4036340038935755,0.2264691801316577,0.46787800129785856,0.2264691801316577,1.4704737183646983,0.2264691801316577,0.06683971447112265,0.2264691801316577,0.4344581440622972
72,0.22965888689407543,0.4344581440622972,0.22965888689407543,1.437053861129137,0.22965888689407543,0.46787800129785856,0.22965888689407543,1.4704737183646983,0.22965888689407543,0.06683971447112265,0.22965888689407543,0.4344581440622972
73,0.23284859365649316,0.33419857235561323,0.23284859365649316,1.437053861129137,0.23284859365649316,0.46787800129785856,0.23284859365649316,1.4704737183646983,0.23284859365649316,0.10025957170668397,0.23284859365649316,0.4344581440622972
74,0.23603830041891086,0.2673588578844906,0.23603830041891086,1.437053861129137,0.23603830041891086,0.46787800129785856,0.23603830041891086,1.4704737183646983,0.23603830041891086,0.10025957170668397,0.23603830041891086,0.4344581440622972
75,0.23922800718132858,0.16709928617780662,0.23922800718132858,1.437053861129137,0.23922800718132858,0.46787800129785856,0.23922800718132858,1.437053861129137,0.23922800718132858,0.1336794289422453,0.23922800718132858,0.4344581440622972
76,0.24241771394374628,0.10025957170668397,0.24241771394374628,1.437053861129137,0.24241771394374628,0.46787800129785856,0.24241771394374628,1.437053861129137,0.24241771394374628,0.1336794289422453,0.24241771394374628,0.4344581440622972
77,0.245607420706164,0.06683971447112265,0.245607420706164,1.437053861129137,0.245607420706164,0.46787800129785856,0.245607420706164,1.4036340038935755,0.245607420706164,0.1336794289422453,0.245607420706164,0.4344581440622972
78,0.2487971274685817,0.033419857235561325,0.2487971274685817,1.437053861129137,0.2487971274685817,0.46787800129785856,0.2487971274685817,1.4036340038935755,0.2487971274685817,0.1336794289422453,0.2487971274685817,0.46787800129785856
79,0.25198683423099943,0.06683971447112265,0.25198683423099943,1.437053861129137,0.25198683423099943,0.46787800129785856,0.25198683423099943,1.3702141466580142,0.25198683423099943,0.1336794289422453,0.25198683423099943,0.46787800129785856
80,0.25517654099341713,0.10025957170668397,0.25517654099341713,1.437053861129137,0.25517654099341713,0.46787800129785856,0.25517654099341713,1.336794289422453,0.25517654099341713,0.1336794289422453,0.25517654099341713,0.46787800129785856
81,0.2583662477558349,0.16709928617780662,0.2583662477558349,1.437053861129137,0.2583662477558349,0.46787800129785856,0.2583662477558349,1.3033744321868916,0.2583662477558349,0.1336794289422453,0.2583662477558349,0.46787800129785856
82,0.2615559545182526,0.23393900064892928,0.2615559545182526,1.437053861129137,0.2615559545182526,0.46787800129785856,0.2615559545182526,1.2699545749513304,0.2615559545182526,0.1336794289422453,0.2615559545182526,0.46787800129785856
83,0.2647456612806703,0.3676184295911746,0.2647456612806703,1.437053861129137,0.2647456612806703,0.46787800129785856,0.2647456612806703,1.236534717715769,0.2647456612806703,0.1336794289422453,0.2647456612806703,0.46787800129785856
84,0.267935368043088,0.5012978585334199,0.267935368043088,1.4704737183646983,0.267935368043088,0.46787800129785856,0.267935368043088,1.236534717715769,0.267935368043088,0.1336794289422453,0.267935368043088,0.46787800129785856
85,0.27112507480550574,0.5681375730045425,0.27112507480550574,1.4704737183646983,0.27112507480550574,0.4344581440622972,0.27112507480550574,1.2031148604802075,0.27112507480550574,0.1336794289422453,0.27112507480550574,0.46787800129785856
86,0.27431478156792344,0.6015574302401038,0.27431478156792344,1.4704737183646983,0.27431478156792344,0.4344581440622972,0.27431478156792344,1.2031148604802075,0.27431478156792344,0.1336794289422453,0.27431478156792344,0.46787800129785856
87,0.27750448833034114,0.6683971447112265,0.27750448833034114,1.4704737183646983,0.27750448833034114,0.4344581440622972,0.27750448833034114,1.2031148604802075,0.27750448833034114,0.1336794289422453,0.27750448833034114,0.46787800129785856
88,0.28069419509275884,0.7018170019467878,0.28069419509275884,1.4704737183646983,0.28069419509275884,0.40103828682673587,0.28069419509275884,1.2031148604802075,0.28069419509275884,0.1336794289422453,0.28069419509275884,0.46787800129785856
89,0.2838839018551766,0.8020765736534717,0.2838839018551766,1.5038935756002596,0.2838839018551766,0.40103828682673587,0.2838839018551766,1.1696950032446463,0.2838839018551766,0.1336794289422453,0.2838839018551766,0.46787800129785856
90,0.2870736086175943,0.9023361453601557,0.2870736086175943,1.5038935756002596,0.2870736086175943,0.40103828682673587,0.2870736086175943,1.2031148604802075,0.2870736086175943,0.1336794289422453,0.2870736086175943,0.5012978585334199
91,0.290263315380012,0.9691758598312784,0.290263315380012,1.5038935756002596,0.290263315380012,0.3676184295911746,0.290263315380012,1.2031148604802075,0.290263315380012,0.1336794289422453,0.290263315380012,0.5012978585334199
92,0.29345302214242974,1.0025957170668398,0.29345302214242974,1.5038935756002596,0.29345302214242974,0.3676184295911746,0.29345302214242974,1.236534717715769,0.29345302214242974,0.1336794289422453,0.29345302214242974,0.5012978585334199
93,0.29664272890484744,1.0025957170668398,0.29664272890484744,1.5038935756002596,0.29664272890484744,0.3676184295911746,0.29664272890484744,1.236534717715769,0.29664272890484744,0.1336794289422453,0.29664272890484744,0.5012978585334199
94,0.29983243566726514,1.0025957170668398,0.29983243566726514,1.537313432835821,0.29983243566726514,0.33419857235561323,0.29983243566726514,1.236534717715769,0.29983243566726514,0.10025957170668397,0.29983243566726514,0.5012978585334199
95,0.30302214242968284,1.0025957170668398,0.30302214242968284,1.537313432835821,0.30302214242968284,0.33419857235561323,0.30302214242968284,1.236534717715769,0.30302214242968284,0.10025957170668397,0.30302214242968284,0.5347177157689812
96,0.3062118491921006,1.0025957170668398,0.3062118491921006,1.537313432835821,0.3062118491921006,0.33419857235561323,0.3062118491921006,1.236534717715769,0.3062118491921006,0.10025957170668397,0.3062118491921006,0.5347177157689812
97,0.3094015559545183,1.0025957170668398,0.3094015559545183,1.537313432835821,0.3094015559545183,0.3676184295911746,0.3094015559545183,1.236534717715769,0.3094015559545183,0.10025957170668397,0.3094015559545183,0.5681375730045425
98,0.312591262716936,1.0025957170668398,0.312591262716936,1.537313432835821,0.312591262716936,0.40103828682673587,0.312591262716936,1.236534717715769,0.312591262716936,0.10025957170668397,0.312591262716936,0.6015574302401038
99,0.31578096947935375,1.0025957170668398,0.31578096947935375,1.537313432835821,0.31578096947935375,0.4344581440622972,0.31578096947935375,1.236534717715769,0.31578096947935375,0.10025957170668397,0.31578096947935375,0.6349772874756652
100,0.31897067624177144,1.0025957170668398,0.31897067624177144,1.5707332900713822,0.31897067624177144,0.46787800129785856,0.31897067624177144,1.236534717715769,0.31897067624177144,0.10025957170668397,0.31897067624177144,0.6683971447112265
101,0.32216038300418914,1.036015574302401,0.32216038300418914,1.5707332900713822,0.32216038300418914,0.5012978585334199,0.32216038300418914,1.236534717715769,0.32216038300418914,0.10025957170668397,0.32216038300418914,0.7018170019467878
102,0.32535008976660684,1.036015574302401,0.32535008976660684,1.5707332900713822,0.32535008976660684,0.5347177157689812,0.32535008976660684,1.236534717715769,0.32535008976660684,0.10025957170668397,0.32535008976660684,0.7352368591823492
103,0.3285397965290246,1.036015574302401,0.3285397965290246,1.6041531473069435,0.3285397965290246,0.5681375730045425,0.3285397965290246,1.236534717715769,0.3285397965290246,0.10025957170668397,0.3285397965290246,0.7352368591823492
104,0.3317295032914423,1.036015574302401,0.3317295032914423,1.6041531473069435,0.3317295032914423,0.5681375730045425,0.3317295032914423,1.236534717715769,0.3317295032914423,0.10025957170668397,0.3317295032914423,0.7686567164179104
105,0.33491921005386,1.036015574302401,0.33491921005386,1.6375730045425048,0.33491921005386,0.6015574302401038,0.33491921005386,1.236534717715769,0.33491921005386,0.1336794289422453,0.33491921005386,0.7686567164179104
106,0.3381089168162777,1.036015574302401,0.3381089168162777,1.6375730045425048,0.3381089168162777,0.6349772874756652,0.3381089168162777,1.236534717715769,0.3381089168162777,0.1336794289422453,0.3381089168162777,0.8020765736534717
107,0.34129862357869545,1.036015574302401,0.34129862357869545,1.6709928617780663,0.34129862357869545,0.6349772874756652,0.34129862357869545,1.236534717715769,0.34129862357869545,0.1336794289422453,0.34129862357869545,0.8020765736534717
108,0.34448833034111315,1.036015574302401,0.34448833034111315,1.7044127190136276,0.34448833034111315,0.6349772874756652,0.34448833034111315,1.236534717715769,0.34448833034111315,0.1336794289422453,0.34448833034111315,0.8354964308890331
109,0.34767803710353085,1.036015574302401,0.34767803710353085,1.7378325762491889,0.34767803710353085,0.6349772874756652,0.34767803710353085,1.236534717715769,0.34767803710353085,0.1336794289422453,0.34767803710353085,0.8354964308890331
110,0.3508677438659486,1.036015574302401,0.3508677438659486,1.7712524334847501,0.3508677438659486,0.6349772874756652,0.3508677438659486,1.236534717715769,0.3508677438659486,0.16709928617780662,0.3508677438659486,0.8354964308890331
111,0.3540574506283663,1.036015574302401,0.3540574506283663,1.8046722907203114,0.3540574506283663,0.6349772874756652,0.3540574506283663,1.236534717715769,0.3540574506283663,0.16709928617780662,0.3540574506283663,0.8689162881245944
112,0.357247157390784,1.036015574302401,0.357247157390784,1.8046722907203114,0.357247157390784,0.6349772874756652,0.357247157390784,1.236534717715769,0.357247157390784,0.16709928617780662,0.357247157390784,0.8689162881245944
113,0.3604368641532017,1.036015574302401,0.3604368641532017,1.8380921479558727,0.3604368641532017,0.6349772874756652,0.3604368641532017,1.236534717715769,0.3604368641532017,0.20051914341336793,0.3604368641532017,0.8689162881245944
114,0.36362657091561945,1.036015574302401,0.36362657091561945,1.8715120051914342,0.36362657091561945,0.6349772874756652,0.36362657091561945,1.236534717715769,0.36362657091561945,0.20051914341336793,0.36362657091561945,0.8689162881245944
115,0.36681627767803715,1.036015574302401,0.36681627767803715,1.8715120051914342,0.36681627767803715,0.6349772874756652,0.36681627767803715,1.236534717715769,0.36681627767803715,0.20051914341336793,0.36681627767803715,0.8689162881245944
116,0.37000598444045485,1.036015574302401,0.37000598444045485,1.9049318624269955,0.37000598444045485,0.6349772874756652,0.37000598444045485,1.236534717715769,0.37000598444045485,0.23393900064892928,0.37000598444045485,0.8689162881245944
117,0.3731956912028726,1.036015574302401,0.3731956912028726,1.9049318624269955,0.3731956912028726,0.6349772874756652,0.3731956912028726,1.236534717715769,0.3731956912028726,0.23393900064892928,0.3731956912028726,0.8689162881245944
118,0.3763853979652903,1.036015574302401,0.3763853979652903,1.9383517196625568,0.3763853979652903,0.6349772874756652,0.3763853979652903,1.236534717715769,0.3763853979652903,0.2673588578844906,0.3763853979652903,0.9023361453601557
119,0.379575104727708,1.036015574302401,0.379575104727708,1.9383517196625568,0.379575104727708,0.6349772874756652,0.379575104727708,1.236534717715769,0.379575104727708,0.2673588578844906,0.379575104727708,0.9023361453601557
120,0.3827648114901257,1.036015574302401,0.3827648114901257,1.971771576898118,0.3827648114901257,0.6349772874756652,0.3827648114901257,1.236534717715769,0.3827648114901257,0.2673588578844906,0.3827648114901257,0.9023361453601557
121,0.38595451825254345,1.036015574302401,0.38595451825254345,2.0051914341336796,0.38595451825254345,0.6349772874756652,0.38595451825254345,1.236534717715769,0.38595451825254345,0.2673588578844906,0.38595451825254345,0.9023361453601557
122,0.38914422501496115,1.0694354315379624,0.38914422501496115,2.0386112913692407,0.38914422501496115,0.6349772874756652,0.38914422501496115,1.236534717715769,0.38914422501496115,0.2673588578844906,0.38914422501496115,0.9357560025957171
123,0.39233393177737885,1.0694354315379624,0.39233393177737885,2.072031148604802,0.39233393177737885,0.6349772874756652,0.39233393177737885,1.236534717715769,0.39233393177737885,0.2673588578844906,0.39233393177737885,0.9357560025957171
124,0.39552363853979655,1.0694354315379624,0.39552363853979655,2.1054510058403633,0.39552363853979655,0.6349772874756652,0.39552363853979655,1.236534717715769,0.39552363853979655,0.2673588578844906,0.39552363853979655,0.9357560025957171
125,0.3987133453022143,1.0694354315379624,0.3987133453022143,2.1388708630759248,0.3987133453022143,0.6349772874756652,0.3987133453022143,1.236534717715769,0.3987133453022143,0.2673588578844906,0.3987133453022143,0.9691758598312784
126,0.401903052064632,1.1028552887735237,0.401903052064632,2.1388708630759248,0.401903052064632,0.6349772874756652,0.401903052064632,0.7018170019467878,0.401903052064632,0.2673588578844906,0.401903052064632,0.9691758598312784
127,0.4050927588270497,1.1028552887735237,0.4050927588270497,2.172290720311486,0.4050927588270497,0.6015574302401038,0.4050927588270497,0.6015574302401038,0.4050927588270497,0.2673588578844906,0.4050927588270497,1.0025957170668398
128,0.40828246558946746,1.1028552887735237,0.40828246558946746,2.172290720311486,0.40828246558946746,0.6015574302401038,0.40828246558946746,0.46787800129785856,0.40828246558946746,0.2673588578844906,0.40828246558946746,1.0025957170668398
129,0.41147217235188516,1.136275146009085,0.41147217235188516,2.2057105775470474,0.41147217235188516,0.5681375730045425,0.41147217235188516,0.3676184295911746,0.41147217235188516,0.2673588578844906,0.41147217235188516,1.036015574302401
130,0.41466187911430286,1.136275146009085,0.41466187911430286,2.2057105775470474,0.41466187911430286,0.5681375730045425,0.41466187911430286,0.3007787151200519,0.41466187911430286,0.2673588578844906,0.41466187911430286,1.036015574302401
131,0.41785158587672055,1.136275146009085,0.41785158587672055,2.239130434782609,0.41785158587672055,0.5347177157689812,0.41785158587672055,0.2673588578844906,0.41785158587672055,0.2673588578844906,0.41785158587672055,1.0694354315379624
132,0.4210412926391383,1.136275146009085,0.4210412926391383,2.239130434782609,0.4210412926391383,0.5347177157689812,0.4210412926391383,0.20051914341336793,0.4210412926391383,0.2673588578844906,0.4210412926391383,1.1028552887735237
133,0.424230999401556,1.1696950032446463,0.424230999401556,2.239130434782609,0.424230999401556,0.5012978585334199,0.424230999401556,0.1336794289422453,0.424230999401556,0.2673588578844906,0.424230999401556,1.136275146009085
134,0.4274207061639737,1.1696950032446463,0.4274207061639737,2.239130434782609,0.4274207061639737,0.5012978585334199,0.4274207061639737,0.10025957170668397,0.4274207061639737,0.2673588578844906,0.4274207061639737,1.1696950032446463
135,0.43061041292639146,1.1696950032446463,0.43061041292639146,2.239130434782609,0.43061041292639146,0.5012978585334199,0.43061041292639146,0.06683971447112265,0.43061041292639146,0.2673588578844906,0.43061041292639146,1.2031148604802075
136,0.43380011968880916,1.1696950032446463,0.43380011968880916,2.239130434782609,0.43380011968880916,0.46787800129785856,0.43380011968880916,0.033419857235561325,0.43380011968880916,0.2673588578844906,0.43380011968880916,1.2031148604802075
137,0.43698982645122686,1.2031148604802075,0.43698982645122686,2.239130434782609,0.43698982645122686,0.46787800129785856,0.43698982645122686,0.06683971447112265,0.43698982645122686,0.2673588578844906,0.43698982645122686,1.236534717715769
138,0.44017953321364456,1.2031148604802075,0.44017953321364456,2.239130434782609,0.44017953321364456,0.46787800129785856,0.44017953321364456,0.10025957170668397,0.44017953321364456,0.2673588578844906,0.44017953321364456,1.2699545749513304
139,0.4433692399760623,1.236534717715769,0.4433692399760623,2.239130434782609,0.4433692399760623,0.4344581440622972,0.4433692399760623,0.16709928617780662,0.4433692399760623,0.23393900064892928,0.4433692399760623,1.2699545749513304
140,0.44655894673848,1.236534717715769,0.44655894673848,2.239130434782609,0.44655894673848,0.4344581440622972,0.44655894673848,0.23393900064892928,0.44655894673848,0.23393900064892928,0.44655894673848,1.3033744321868916
141,0.4497486535008977,1.236534717715769,0.4497486535008977,2.239130434782609,0.4497486535008977,0.40103828682673587,0.4497486535008977,0.3007787151200519,0.4497486535008977,0.23393900064892928,0.4497486535008977,1.3033744321868916
142,0.4529383602633154,1.2699545749513304,0.4529383602633154,2.239130434782609,0.4529383602633154,0.40103828682673587,0.4529383602633154,0.3676184295911746,0.4529383602633154,0.23393900064892928,0.4529383602633154,1.3033744321868916
143,0.45612806702573316,1.2699545749513304,0.45612806702573316,2.239130434782609,0.45612806702573316,0.3676184295911746,0.45612806702573316,0.46787800129785856,0.45612806702573316,0.20051914341336793,0.45612806702573316,1.3033744321868916
144,0.45931777378815086,1.3033744321868916,0.45931777378815086,2.239130434782609,0.45931777378815086,0.3676184295911746,0.45931777378815086,0.5347177157689812,0.45931777378815086,0.20051914341336793,0.45931777378815086,1.3033744321868916
145,0.46250748055056856,1.3033744321868916,0.46250748055056856,2.239130434782609,0.46250748055056856,0.33419857235561323,0.46250748055056856,0.6015574302401038,0.46250748055056856,0.20051914341336793,0.46250748055056856,1.3033744321868916
146,0.4656971873129863,1.336794289422453,0.4656971873129863,2.239130434782609,0.4656971873129863,0.33419857235561323,0.4656971873129863,0.6683971447112265,0.4656971873129863,0.20051914341336793,0.4656971873129863,1.3033744321868916
147,0.468886894075404,1.336794289422453,0.468886894075404,2.239130434782609,0.468886894075404,0.3007787151200519,0.468886894075404,0.7352368591823492,0.468886894075404,0.20051914341336793,0.468886894075404,1.3033744321868916
148,0.4720766008378217,1.3702141466580142,0.4720766008378217,2.239130434782609,0.4720766008378217,0.3007787151200519,0.4720766008378217,0.9023361453601557,0.4720766008378217,0.20051914341336793,0.4720766008378217,1.3033744321868916
149,0.4752663076002394,1.3702141466580142,0.4752663076002394,2.239130434782609,0.4752663076002394,0.2673588578844906,0.4752663076002394,1.0025957170668398,0.4752663076002394,0.20051914341336793,0.4752663076002394,1.3033744321868916
150,0.47845601436265717,1.4036340038935755,0.47845601436265717,2.239130434782609,0.47845601436265717,0.2673588578844906,0.47845601436265717,1.036015574302401,0.47845601436265717,0.20051914341336793,0.47845601436265717,1.3033744321868916
151,0.48164572112507487,1.4036340038935755,0.48164572112507487,2.239130434782609,0.48164572112507487,0.23393900064892928,0.48164572112507487,1.0694354315379624,0.48164572112507487,0.20051914341336793,0.48164572112507487,1.3033744321868916
152,0.48483542788749256,1.4036340038935755,0.48483542788749256,2.239130434782609,0.48483542788749256,0.20051914341336793,0.48483542788749256,1.0694354315379624,0.48483542788749256,0.20051914341336793,0.48483542788749256,1.3033744321868916
153,0.4880251346499103,1.437053861129137,0.4880251346499103,2.239130434782609,0.4880251346499103,0.16709928617780662,0.4880251346499103,1.0694354315379624,0.4880251346499103,0.20051914341336793,0.4880251346499103,1.3033744321868916
154,0.491214841412328,1.437053861129137,0.491214841412328,2.239130434782609,0.491214841412328,0.1336794289422453,0.491214841412328,1.0694354315379624,0.491214841412328,0.20051914341336793,0.491214841412328,1.3033744321868916
155,0.4944045481747457,1.437053861129137,0.4944045481747457,2.239130434782609,0.4944045481747457,0.10025957170668397,0.4944045481747457,1.0694354315379624,0.4944045481747457,0.20051914341336793,0.4944045481747457,1.3033744321868916
156,0.4975942549371634,1.4704737183646983,0.4975942549371634,2.2057105775470474,0.4975942549371634,0.06683971447112265,0.4975942549371634,1.0694354315379624,0.4975942549371634,0.20051914341336793,0.4975942549371634,1.3033744321868916
157,0.5007839616995812,1.4704737183646983,0.5007839616995812,2.2057105775470474,0.5007839616995812,0.06683971447112265,0.5007839616995812,1.0694354315379624,0.5007839616995812,0.20051914341336793,0.5007839616995812,1.3033744321868916
158,0.5039736684619989,1.5038935756002596,0.5039736684619989,2.2057105775470474,0.5039736684619989,0.06683971447112265,0.5039736684619989,1.0694354315379624,0.5039736684619989,0.20051914341336793,0.5039736684619989,1.3033744321868916
159,0.5071633752244166,1.537313432835821,0.5071633752244166,2.172290720311486,0.5071633752244166,0.06683971447112265,0.5071633752244166,1.0694354315379624,0.5071633752244166,0.20051914341336793,0.5071633752244166,1.3033744321868916
160,0.5103530819868343,1.6041531473069435,0.5103530819868343,2.1388708630759248,0.5103530819868343,0.06683971447112265,0.5103530819868343,1.0694354315379624,0.5103530819868343,0.20051914341336793,0.5103530819868343,1.3033744321868916
161,0.513542788749252,1.6375730045425048,0.513542788749252,2.1388708630759248,0.513542788749252,0.06683971447112265,0.513542788749252,1.0694354315379624,0.513542788749252,0.20051914341336793,0.513542788749252,1.3033744321868916
162,0.5167324955116698,1.6709928617780663,0.5167324955116698,2.1054510058403633,0.5167324955116698,0.06683971447112265,0.5167324955116698,1.0694354315379624,0.5167324955116698,0.20051914341336793,0.5167324955116698,1.3033744321868916
163,0.5199222022740875,1.6709928617780663,0.5199222022740875,2.072031148604802,0.5199222022740875,0.06683971447112265,0.5199222022740875,1.0694354315379624,0.5199222022740875,0.20051914341336793,0.5199222022740875,1.3033744321868916
164,0.5231119090365052,1.7044127190136276,0.5231119090365052,2.0386112913692407,0.5231119090365052,0.06683971447112265,0.5231119090365052,1.0694354315379624,0.5231119090365052,0.16709928617780662,0.5231119090365052,1.2699545749513304
165,0.5263016157989229,1.7378325762491889,0.5263016157989229,2.0051914341336796,0.5263016157989229,0.06683971447112265,0.5263016157989229,1.0694354315379624,0.5263016157989229,0.16709928617780662,0.5263016157989229,1.2699545749513304
166,0.5294913225613406,1.7712524334847501,0.5294913225613406,1.971771576898118,0.5294913225613406,0.06683971447112265,0.5294913225613406,1.1028552887735237,0.5294913225613406,0.16709928617780662,0.5294913225613406,1.236534717715769
167,0.5326810293237583,1.8046722907203114,0.5326810293237583,1.9383517196625568,0.5326810293237583,0.06683971447112265,0.5326810293237583,1.1028552887735237,0.5326810293237583,0.16709928617780662,0.5326810293237583,1.2031148604802075
168,0.535870736086176,1.8380921479558727,0.535870736086176,1.9049318624269955,0.535870736086176,0.06683971447112265,0.535870736086176,1.1028552887735237,0.535870736086176,0.1336794289422453,0.535870736086176,1.2031148604802075
169,0.5390604428485937,1.8715120051914342,0.5390604428485937,1.8715120051914342,0.5390604428485937,0.06683971447112265,0.5390604428485937,1.1028552887735237,0.5390604428485937,0.1336794289422453,0.5390604428485937,1.1696950032446463
170,0.5422501496110115,1.9049318624269955,0.5422501496110115,1.8380921479558727,0.5422501496110115,0.06683971447112265,0.5422501496110115,1.136275146009085,0.5422501496110115,0.1336794289422453,0.5422501496110115,1.1696950032446463
171,0.5454398563734292,1.9383517196625568,0.5454398563734292,1.8046722907203114,0.5454398563734292,0.06683971447112265,0.5454398563734292,1.136275146009085,0.5454398563734292,0.10025957170668397,0.5454398563734292,1.136275146009085
172,0.5486295631358469,1.9383517196625568,0.5486295631358469,1.7712524334847501,0.5486295631358469,0.06683971447112265,0.5486295631358469,1.136275146009085,0.5486295631358469,0.10025957170668397,0.5486295631358469,1.136275146009085
173,0.5518192698982646,1.971771576898118,0.5518192698982646,1.7378325762491889,0.5518192698982646,0.033419857235561325,0.5518192698982646,1.1696950032446463,0.5518192698982646,0.10025957170668397,0.5518192698982646,1.1028552887735237
174,0.5550089766606823,2.0051914341336796,0.5550089766606823,1.7378325762491889,0.5550089766606823,0.033419857235561325,0.5550089766606823,1.1696950032446463,0.5550089766606823,0.10025957170668397,0.5550089766606823,1.1028552887735237
175,0.5581986834231,2.0051914341336796,0.5581986834231,1.7044127190136276,0.5581986834231,0.033419857235561325,0.5581986834231,1.1696950032446463,0.5581986834231,0.10025957170668397,0.5581986834231,1.1028552887735237
176,0.5613883901855177,2.0386112913692407,0.5613883901855177,1.6709928617780663,0.5613883901855177,0.033419857235561325,0.5613883901855177,1.1696950032446463,0.5613883901855177,0.10025957170668397,0.5613883901855177,1.0694354315379624
177,0.5645780969479355,2.0386112913692407,0.5645780969479355,1.6709928617780663,0.5645780969479355,0.033419857235561325,0.5645780969479355,1.1696950032446463,0.5645780969479355,0.10025957170668397,0.5645780969479355,1.0694354315379624
178,0.5677678037103532,2.072031148604802,0.5677678037103532,1.6375730045425048,0.5677678037103532,0.033419857235561325,0.5677678037103532,1.1696950032446463,0.5677678037103532,0.10025957170668397,0.5677678037103532,1.036015574302401
179,0.5709575104727709,2.072031148604802,0.5709575104727709,1.6375730045425048,0.5709575104727709,0.06683971447112265,0.5709575104727709,1.1696950032446463,0.5709575104727709,0.10025957170668397,0.5709575104727709,1.0025957170668398
180,0.5741472172351886,2.072031148604802,0.5741472172351886,1.6041531473069435,0.5741472172351886,0.06683971447112265,0.5741472172351886,1.2031148604802075,0.5741472172351886,0.1336794289422453,0.5741472172351886,0.9691758598312784
181,0.5773369239976063,2.1054510058403633,0.5773369239976063,1.6041531473069435,0.5773369239976063,0.06683971447112265,0.5773369239976063,1.2031148604802075,0.5773369239976063,0.1336794289422453,0.5773369239976063,0.9691758598312784
182,0.580526630760024,2.1054510058403633,0.580526630760024,1.6041531473069435,0.580526630760024,0.10025957170668397,0.580526630760024,1.2031148604802075,0.580526630760024,0.1336794289422453,0.580526630760024,0.9357560025957171
183,0.5837163375224417,2.1054510058403633,0.5837163375224417,1.6041531473069435,0.5837163375224417,0.1336794289422453,0.5837163375224417,1.2031148604802075,0.5837163375224417,0.16709928617780662,0.5837163375224417,0.9357560025957171
184,0.5869060442848595,2.1054510058403633,0.5869060442848595,1.5707332900713822,0.5869060442848595,0.16709928617780662,0.5869060442848595,1.2031148604802075,0.5869060442848595,0.16709928617780662,0.5869060442848595,0.9023361453601557
185,0.5900957510472772,2.1054510058403633,0.5900957510472772,1.5707332900713822,0.5900957510472772,0.2673588578844906,0.5900957510472772,1.236534717715769,0.5900957510472772,0.16709928617780662,0.5900957510472772,0.9023361453601557
186,0.5932854578096949,2.1054510058403633,0.5932854578096949,1.5707332900713822,0.5932854578096949,0.4344581440622972,0.5932854578096949,1.236534717715769,0.5932854578096949,0.16709928617780662,0.5932854578096949,0.8689162881245944
187,0.5964751645721126,2.1054510058403633,0.5964751645721126,1.5707332900713822,0.5964751645721126,0.6349772874756652,0.5964751645721126,1.236534717715769,0.5964751645721126,0.20051914341336793,0.5964751645721126,0.8689162881245944
188,0.5996648713345303,2.1054510058403633,0.5996648713345303,1.5707332900713822,0.5996648713345303,0.7352368591823492,0.5996648713345303,1.2699545749513304,0.5996648713345303,0.20051914341336793,0.5996648713345303,0.8689162881245944
189,0.602854578096948,2.1054510058403633,0.602854578096948,1.5707332900713822,0.602854578096948,0.8689162881245944,0.602854578096948,1.2699545749513304,0.602854578096948,0.20051914341336793,0.602854578096948,0.8354964308890331
190,0.6060442848593657,2.1054510058403633,0.6060442848593657,1.5707332900713822,0.6060442848593657,1.2031148604802075,0.6060442848593657,1.3033744321868916,0.6060442848593657,0.23393900064892928,0.6060442848593657,0.8354964308890331
191,0.6092339916217835,2.1054510058403633,0.6092339916217835,1.537313432835821,0.6092339916217835,1.3033744321868916,0.6092339916217835,1.336794289422453,0.6092339916217835,0.23393900064892928,0.6092339916217835,0.8354964308890331
192,0.6124236983842012,2.1054510058403633,0.6124236983842012,1.537313432835821,0.6124236983842012,1.3702141466580142,0.6124236983842012,1.336794289422453,0.6124236983842012,0.23393900064892928,0.6124236983842012,0.8354964308890331
193,0.6156134051466189,2.1054510058403633,0.6156134051466189,1.537313432835821,0.6156134051466189,1.3702141466580142,0.6156134051466189,1.3702141466580142,0.6156134051466189,0.2673588578844906,0.6156134051466189,0.8020765736534717
194,0.6188031119090366,2.1054510058403633,0.6188031119090366,1.537313432835821,0.6188031119090366,1.4036340038935755,0.6188031119090366,1.4036340038935755,0.6188031119090366,0.2673588578844906,0.6188031119090366,0.8020765736534717
195,0.6219928186714543,2.1054510058403633,0.6219928186714543,1.5038935756002596,0.6219928186714543,1.4036340038935755,0.6219928186714543,1.4036340038935755,0.6219928186714543,0.2673588578844906,0.6219928186714543,0.8020765736534717
196,0.625182525433872,2.1054510058403633,0.625182525433872,1.5038935756002596,0.625182525433872,1.4036340038935755,0.625182525433872,1.437053861129137,0.625182525433872,0.3007787151200519,0.625182525433872,0.8020765736534717
197,0.6283722321962897,2.1054510058403633,0.6283722321962897,1.5038935756002596,0.6283722321962897,1.437053861129137,0.6283722321962897,1.437053861129137,0.6283722321962897,0.3007787151200519,0.6283722321962897,0.8020765736534717
198,0.6315619389587075,2.1054510058403633,0.6315619389587075,1.5038935756002596,0.6315619389587075,1.437053861129137,0.6315619389587075,1.4704737183646983,0.6315619389587075,0.33419857235561323,0.6315619389587075,0.8354964308890331
199,0.6347516457211252,2.1054510058403633,0.6347516457211252,1.5038935756002596,0.6347516457211252,1.4704737183646983,0.6347516457211252,1.4704737183646983,0.6347516457211252,0.3676184295911746,0.6347516457211252,0.8354964308890331
200,0.6379413524835429,2.072031148604802,0.6379413524835429,1.537313432835821,0.6379413524835429,1.4704737183646983,0.6379413524835429,1.4704737183646983,0.6379413524835429,0.40103828682673587,0.6379413524835429,0.8354964308890331
