,x_val,y_val,x_val,y_val,x_val,y_val,x_val,y_val,x_val,y_val,x_val,y_val,x_val,y_val,x_val,y_val,x_val,y_val
0,0.0,0.6767819706498952,0.0,0.4389937106918239,0.0,0.1280398322851153,0.0,0.07316561844863732,0.0,0.9145702306079665,0.0,1.390146750524109
1,0.0022922292229222924,0.6584905660377358,0.0022922292229222924,0.4389937106918239,0.0022922292229222924,0.07316561844863732,0.0022922292229222924,0.14633123689727465,0.0022922292229222924,0.9145702306079665,0.0022922292229222924,1.390146750524109
2,0.004584458445844585,0.6584905660377358,0.004584458445844585,0.4389937106918239,0.004584458445844585,0.03658280922431866,0.004584458445844585,0.4389937106918239,0.004584458445844585,0.9145702306079665,0.004584458445844585,1.390146750524109
3,0.006876687668766877,0.6584905660377358,0.006876687668766877,0.4389937106918239,0.006876687668766877,0.01829140461215933,0.006876687668766877,0.6950733752620545,0.006876687668766877,0.9145702306079665,0.006876687668766877,1.390146750524109
4,0.00916891689168917,0.6584905660377358,0.00916891689168917,0.4389937106918239,0.00916891689168917,0.01829140461215933,0.00916891689168917,0.7682389937106918,0.00916891689168917,0.9145702306079665,0.00916891689168917,1.390146750524109
5,0.011461146114611461,0.6767819706498952,0.011461146114611461,0.4389937106918239,0.011461146114611461,0.01829140461215933,0.011461146114611461,0.7865303983228512,0.011461146114611461,0.9328616352201258,0.011461146114611461,1.390146750524109
6,0.013753375337533754,0.6767819706498952,0.013753375337533754,0.4389937106918239,0.013753375337533754,0.01829140461215933,0.013753375337533754,0.8048218029350105,0.013753375337533754,0.9328616352201258,0.013753375337533754,1.390146750524109
7,0.016045604560456048,0.6767819706498952,0.016045604560456048,0.4389937106918239,0.016045604560456048,0.03658280922431866,0.016045604560456048,0.8231132075471699,0.016045604560456048,0.9328616352201258,0.016045604560456048,1.390146750524109
8,0.01833783378337834,0.6767819706498952,0.01833783378337834,0.4389937106918239,0.01833783378337834,0.03658280922431866,0.01833783378337834,0.8231132075471699,0.01833783378337834,0.9328616352201258,0.01833783378337834,1.390146750524109
9,0.02063006300630063,0.6767819706498952,0.02063006300630063,0.4389937106918239,0.02063006300630063,0.05487421383647799,0.02063006300630063,0.8231132075471699,0.02063006300630063,0.9328616352201258,0.02063006300630063,1.390146750524109
10,0.022922292229222922,0.6767819706498952,0.022922292229222922,0.4389937106918239,0.022922292229222922,0.07316561844863732,0.022922292229222922,0.8231132075471699,0.022922292229222922,0.9328616352201258,0.022922292229222922,1.3535639412997904
11,0.025214521452145217,0.6767819706498952,0.025214521452145217,0.4389937106918239,0.025214521452145217,0.10974842767295598,0.025214521452145217,0.8414046121593292,0.025214521452145217,0.9328616352201258,0.025214521452145217,1.3169811320754716
12,0.02750675067506751,0.6767819706498952,0.02750675067506751,0.4389937106918239,0.02750675067506751,0.16462264150943395,0.02750675067506751,0.8414046121593292,0.02750675067506751,0.9328616352201258,0.02750675067506751,1.2986897274633125
13,0.0297989798979898,0.6767819706498952,0.0297989798979898,0.4389937106918239,0.0297989798979898,0.5670335429769392,0.0297989798979898,0.8414046121593292,0.0297989798979898,0.9328616352201258,0.0297989798979898,1.2621069182389937
14,0.032091209120912095,0.6767819706498952,0.032091209120912095,0.4389937106918239,0.032091209120912095,0.6401991614255765,0.032091209120912095,0.8414046121593292,0.032091209120912095,0.9328616352201258,0.032091209120912095,1.2621069182389937
15,0.03438343834383439,0.6767819706498952,0.03438343834383439,0.4389937106918239,0.03438343834383439,0.6767819706498952,0.03438343834383439,0.8414046121593292,0.03438343834383439,0.9328616352201258,0.03438343834383439,1.2438155136268345
16,0.03667566756675668,0.6767819706498952,0.03667566756675668,0.4389937106918239,0.03667566756675668,0.6950733752620545,0.03667566756675668,0.8414046121593292,0.03667566756675668,0.9328616352201258,0.03667566756675668,1.2438155136268345
17,0.03896789678967897,0.6767819706498952,0.03896789678967897,0.4389937106918239,0.03896789678967897,0.7133647798742139,0.03896789678967897,0.8414046121593292,0.03896789678967897,0.9328616352201258,0.03896789678967897,1.2255241090146751
18,0.04126012601260126,0.6767819706498952,0.04126012601260126,0.4389937106918239,0.04126012601260126,0.7316561844863732,0.04126012601260126,0.8414046121593292,0.04126012601260126,0.9328616352201258,0.04126012601260126,1.2255241090146751
19,0.04355235523552355,0.6767819706498952,0.04355235523552355,0.4389937106918239,0.04355235523552355,0.7499475890985325,0.04355235523552355,0.8596960167714884,0.04355235523552355,0.9328616352201258,0.04355235523552355,1.2255241090146751
20,0.045844584458445845,0.6767819706498952,0.045844584458445845,0.4389937106918239,0.045844584458445845,0.7682389937106918,0.045844584458445845,0.8596960167714884,0.045844584458445845,0.9328616352201258,0.045844584458445845,1.2072327044025157
21,0.04813681368136814,0.6767819706498952,0.04813681368136814,0.4389937106918239,0.04813681368136814,0.8231132075471699,0.04813681368136814,0.8596960167714884,0.04813681368136814,0.9328616352201258,0.04813681368136814,1.2072327044025157
22,0.050429042904290435,0.6767819706498952,0.050429042904290435,0.4389937106918239,0.050429042904290435,0.8779874213836478,0.050429042904290435,0.8596960167714884,0.050429042904290435,0.9328616352201258,0.050429042904290435,1.2072327044025157
23,0.052721272127212726,0.6767819706498952,0.052721272127212726,0.4389937106918239,0.052721272127212726,0.8962788259958071,0.052721272127212726,0.8596960167714884,0.052721272127212726,0.9328616352201258,0.052721272127212726,1.2255241090146751
24,0.05501350135013502,0.6767819706498952,0.05501350135013502,0.4389937106918239,0.05501350135013502,0.9145702306079665,0.05501350135013502,0.8779874213836478,0.05501350135013502,0.9328616352201258,0.05501350135013502,1.2255241090146751
25,0.05730573057305731,0.6767819706498952,0.05730573057305731,0.4389937106918239,0.05730573057305731,0.9145702306079665,0.05730573057305731,0.8779874213836478,0.05730573057305731,0.9328616352201258,0.05730573057305731,1.2255241090146751
26,0.0595979597959796,0.6767819706498952,0.0595979597959796,0.4389937106918239,0.0595979597959796,0.9145702306079665,0.0595979597959796,0.8779874213836478,0.0595979597959796,0.9328616352201258,0.0595979597959796,1.2255241090146751
27,0.06189018901890189,0.6767819706498952,0.06189018901890189,0.4389937106918239,0.06189018901890189,0.9328616352201258,0.06189018901890189,0.8779874213836478,0.06189018901890189,0.9328616352201258,0.06189018901890189,1.2255241090146751
28,0.06418241824182419,0.6767819706498952,0.06418241824182419,0.4389937106918239,0.06418241824182419,0.9328616352201258,0.06418241824182419,0.8779874213836478,0.06418241824182419,0.9145702306079665,0.06418241824182419,1.2255241090146751
29,0.06647464746474648,0.6584905660377358,0.06647464746474648,0.4389937106918239,0.06647464746474648,0.9328616352201258,0.06647464746474648,0.8779874213836478,0.06647464746474648,0.9145702306079665,0.06647464746474648,1.2255241090146751
30,0.06876687668766877,0.6584905660377358,0.06876687668766877,0.4389937106918239,0.06876687668766877,0.9328616352201258,0.06876687668766877,0.8779874213836478,0.06876687668766877,0.9145702306079665,0.06876687668766877,1.2255241090146751
31,0.07105910591059106,0.6584905660377358,0.07105910591059106,0.4389937106918239,0.07105910591059106,0.9328616352201258,0.07105910591059106,0.8779874213836478,0.07105910591059106,0.9328616352201258,0.07105910591059106,1.2255241090146751
32,0.07335133513351336,0.6401991614255765,0.07335133513351336,0.4389937106918239,0.07335133513351336,0.9328616352201258,0.07335133513351336,0.8779874213836478,0.07335133513351336,0.9328616352201258,0.07335133513351336,1.2255241090146751
33,0.07564356435643566,0.6401991614255765,0.07564356435643566,0.4389937106918239,0.07564356435643566,0.9328616352201258,0.07564356435643566,0.8779874213836478,0.07564356435643566,0.9511530398322852,0.07564356435643566,1.2255241090146751
34,0.07793579357935794,0.6401991614255765,0.07793579357935794,0.4389937106918239,0.07793579357935794,0.9328616352201258,0.07793579357935794,0.8779874213836478,0.07793579357935794,0.9511530398322852,0.07793579357935794,1.2255241090146751
35,0.08022802280228024,0.6219077568134173,0.08022802280228024,0.4389937106918239,0.08022802280228024,0.9328616352201258,0.08022802280228024,0.8779874213836478,0.08022802280228024,0.9511530398322852,0.08022802280228024,1.2255241090146751
36,0.08252025202520252,0.6219077568134173,0.08252025202520252,0.4389937106918239,0.08252025202520252,0.9328616352201258,0.08252025202520252,0.8779874213836478,0.08252025202520252,0.9511530398322852,0.08252025202520252,1.2255241090146751
37,0.08481248124812482,0.6219077568134173,0.08481248124812482,0.4389937106918239,0.08481248124812482,0.9328616352201258,0.08481248124812482,0.8779874213836478,0.08481248124812482,0.9511530398322852,0.08481248124812482,1.2255241090146751
38,0.0871047104710471,0.6219077568134173,0.0871047104710471,0.4389937106918239,0.0871047104710471,0.9328616352201258,0.0871047104710471,0.8779874213836478,0.0871047104710471,0.9511530398322852,0.0871047104710471,1.2255241090146751
39,0.0893969396939694,0.6219077568134173,0.0893969396939694,0.4389937106918239,0.0893969396939694,0.9328616352201258,0.0893969396939694,0.8779874213836478,0.0893969396939694,0.9511530398322852,0.0893969396939694,1.2255241090146751
40,0.09168916891689169,0.6219077568134173,0.09168916891689169,0.4389937106918239,0.09168916891689169,0.9328616352201258,0.09168916891689169,0.8779874213836478,0.09168916891689169,0.9511530398322852,0.09168916891689169,1.2255241090146751
41,0.09398139813981399,0.6219077568134173,0.09398139813981399,0.45728511530398325,0.09398139813981399,0.9328616352201258,0.09398139813981399,0.8779874213836478,0.09398139813981399,0.9511530398322852,0.09398139813981399,1.2255241090146751
42,0.09627362736273629,0.6219077568134173,0.09627362736273629,0.45728511530398325,0.09627362736273629,0.9328616352201258,0.09627362736273629,0.8779874213836478,0.09627362736273629,0.9511530398322852,0.09627362736273629,1.2255241090146751
43,0.09856585658565857,0.6219077568134173,0.09856585658565857,0.45728511530398325,0.09856585658565857,0.9328616352201258,0.09856585658565857,0.8779874213836478,0.09856585658565857,0.9511530398322852,0.09856585658565857,1.2072327044025157
44,0.10085808580858087,0.6401991614255765,0.10085808580858087,0.45728511530398325,0.10085808580858087,0.9328616352201258,0.10085808580858087,0.8779874213836478,0.10085808580858087,0.9511530398322852,0.10085808580858087,1.2072327044025157
45,0.10315031503150315,0.6401991614255765,0.10315031503150315,0.45728511530398325,0.10315031503150315,0.9328616352201258,0.10315031503150315,0.8962788259958071,0.10315031503150315,0.9511530398322852,0.10315031503150315,1.2072327044025157
46,0.10544254425442545,0.6401991614255765,0.10544254425442545,0.45728511530398325,0.10544254425442545,0.9328616352201258,0.10544254425442545,0.8962788259958071,0.10544254425442545,0.9511530398322852,0.10544254425442545,1.2072327044025157
47,0.10773477347734774,0.6401991614255765,0.10773477347734774,0.45728511530398325,0.10773477347734774,0.9328616352201258,0.10773477347734774,0.8962788259958071,0.10773477347734774,0.9511530398322852,0.10773477347734774,1.1889412997903563
48,0.11002700270027004,0.6584905660377358,0.11002700270027004,0.45728511530398325,0.11002700270027004,0.9145702306079665,0.11002700270027004,0.9145702306079665,0.11002700270027004,0.9511530398322852,0.11002700270027004,1.1889412997903563
49,0.11231923192319233,0.6584905660377358,0.11231923192319233,0.45728511530398325,0.11231923192319233,0.9145702306079665,0.11231923192319233,0.9145702306079665,0.11231923192319233,0.9511530398322852,0.11231923192319233,1.1889412997903563
50,0.11461146114611462,0.6584905660377358,0.11461146114611462,0.45728511530398325,0.11461146114611462,0.9328616352201258,0.11461146114611462,0.9145702306079665,0.11461146114611462,0.9511530398322852,0.11461146114611462,1.1889412997903563
51,0.11690369036903692,0.6584905660377358,0.11690369036903692,0.45728511530398325,0.11690369036903692,0.9328616352201258,0.11690369036903692,0.9145702306079665,0.11690369036903692,0.9511530398322852,0.11690369036903692,1.1889412997903563
52,0.1191959195919592,0.6767819706498952,0.1191959195919592,0.45728511530398325,0.1191959195919592,0.9511530398322852,0.1191959195919592,0.9145702306079665,0.1191959195919592,0.9511530398322852,0.1191959195919592,1.1889412997903563
53,0.1214881488148815,0.6767819706498952,0.1214881488148815,0.45728511530398325,0.1214881488148815,0.9511530398322852,0.1214881488148815,0.9328616352201258,0.1214881488148815,0.9511530398322852,0.1214881488148815,1.1889412997903563
54,0.12378037803780378,0.6767819706498952,0.12378037803780378,0.45728511530398325,0.12378037803780378,0.9694444444444444,0.12378037803780378,0.9328616352201258,0.12378037803780378,0.7499475890985325,0.12378037803780378,1.1889412997903563
55,0.12607260726072608,0.6950733752620545,0.12607260726072608,0.45728511530398325,0.12607260726072608,0.9694444444444444,0.12607260726072608,0.9328616352201258,0.12607260726072608,0.7316561844863732,0.12607260726072608,1.1889412997903563
56,0.12836483648364838,0.6950733752620545,0.12836483648364838,0.45728511530398325,0.12836483648364838,0.9694444444444444,0.12836483648364838,0.9328616352201258,0.12836483648364838,0.7133647798742139,0.12836483648364838,1.1889412997903563
57,0.13065706570657068,0.6950733752620545,0.13065706570657068,0.45728511530398325,0.13065706570657068,0.9694444444444444,0.13065706570657068,0.9328616352201258,0.13065706570657068,0.7133647798742139,0.13065706570657068,1.1889412997903563
58,0.13294929492949295,0.6950733752620545,0.13294929492949295,0.45728511530398325,0.13294929492949295,0.9694444444444444,0.13294929492949295,0.9328616352201258,0.13294929492949295,0.7133647798742139,0.13294929492949295,1.1706498951781972
59,0.13524152415241525,0.6950733752620545,0.13524152415241525,0.45728511530398325,0.13524152415241525,0.9694444444444444,0.13524152415241525,0.9328616352201258,0.13524152415241525,0.6950733752620545,0.13524152415241525,1.1706498951781972
60,0.13753375337533755,0.6950733752620545,0.13753375337533755,0.45728511530398325,0.13753375337533755,0.9694444444444444,0.13753375337533755,0.9328616352201258,0.13753375337533755,0.6950733752620545,0.13753375337533755,1.1706498951781972
61,0.13982598259825985,0.6950733752620545,0.13982598259825985,0.45728511530398325,0.13982598259825985,0.9694444444444444,0.13982598259825985,0.9328616352201258,0.13982598259825985,0.6950733752620545,0.13982598259825985,1.1523584905660378
62,0.14211821182118212,0.6950733752620545,0.14211821182118212,0.45728511530398325,0.14211821182118212,0.9694444444444444,0.14211821182118212,0.9328616352201258,0.14211821182118212,0.6950733752620545,0.14211821182118212,1.1523584905660378
63,0.14441044104410442,0.6950733752620545,0.14441044104410442,0.45728511530398325,0.14441044104410442,0.9694444444444444,0.14441044104410442,0.9511530398322852,0.14441044104410442,0.6950733752620545,0.14441044104410442,1.1523584905660378
64,0.1467026702670267,0.6950733752620545,0.1467026702670267,0.45728511530398325,0.1467026702670267,0.9694444444444444,0.1467026702670267,0.9511530398322852,0.1467026702670267,0.7133647798742139,0.1467026702670267,1.1523584905660378
65,0.148994899489949,0.6950733752620545,0.148994899489949,0.45728511530398325,0.148994899489949,0.9694444444444444,0.148994899489949,0.9511530398322852,0.148994899489949,0.7133647798742139,0.148994899489949,1.1523584905660378
66,0.1512871287128713,0.6950733752620545,0.1512871287128713,0.45728511530398325,0.1512871287128713,0.9694444444444444,0.1512871287128713,0.9694444444444444,0.1512871287128713,0.7499475890985325,0.1512871287128713,1.1523584905660378
67,0.15357935793579358,0.6950733752620545,0.15357935793579358,0.45728511530398325,0.15357935793579358,0.9694444444444444,0.15357935793579358,0.9694444444444444,0.15357935793579358,0.9145702306079665,0.15357935793579358,1.1523584905660378
68,0.15587158715871588,0.6950733752620545,0.15587158715871588,0.45728511530398325,0.15587158715871588,0.9694444444444444,0.15587158715871588,0.9877358490566038,0.15587158715871588,0.9511530398322852,0.15587158715871588,1.1523584905660378
69,0.15816381638163818,0.6950733752620545,0.15816381638163818,0.45728511530398325,0.15816381638163818,0.9694444444444444,0.15816381638163818,1.006027253668763,0.15816381638163818,0.9511530398322852,0.15816381638163818,1.1523584905660378
70,0.16045604560456048,0.6950733752620545,0.16045604560456048,0.45728511530398325,0.16045604560456048,0.9694444444444444,0.16045604560456048,1.006027253668763,0.16045604560456048,0.9694444444444444,0.16045604560456048,1.1523584905660378
71,0.16274827482748275,0.6950733752620545,0.16274827482748275,0.45728511530398325,0.16274827482748275,0.9694444444444444,0.16274827482748275,1.0243186582809225,0.16274827482748275,0.9694444444444444,0.16274827482748275,1.1523584905660378
72,0.16504050405040505,0.6950733752620545,0.16504050405040505,0.45728511530398325,0.16504050405040505,0.9694444444444444,0.16504050405040505,1.0243186582809225,0.16504050405040505,0.9694444444444444,0.16504050405040505,1.1523584905660378
73,0.16733273327332734,0.6950733752620545,0.16733273327332734,0.45728511530398325,0.16733273327332734,0.9694444444444444,0.16733273327332734,1.0426100628930817,0.16733273327332734,0.9694444444444444,0.16733273327332734,1.1523584905660378
74,0.16962496249624964,0.6950733752620545,0.16962496249624964,0.45728511530398325,0.16962496249624964,0.9694444444444444,0.16962496249624964,1.0426100628930817,0.16962496249624964,0.9694444444444444,0.16962496249624964,1.1523584905660378
75,0.17191719171917194,0.6950733752620545,0.17191719171917194,0.45728511530398325,0.17191719171917194,0.9694444444444444,0.17191719171917194,1.0426100628930817,0.17191719171917194,0.9694444444444444,0.17191719171917194,1.1523584905660378
76,0.1742094209420942,0.6950733752620545,0.1742094209420942,0.45728511530398325,0.1742094209420942,0.9694444444444444,0.1742094209420942,1.0426100628930817,0.1742094209420942,0.9694444444444444,0.1742094209420942,1.1523584905660378
77,0.1765016501650165,0.6950733752620545,0.1765016501650165,0.45728511530398325,0.1765016501650165,0.9694444444444444,0.1765016501650165,1.0426100628930817,0.1765016501650165,0.9694444444444444,0.1765016501650165,1.1523584905660378
78,0.1787938793879388,0.6950733752620545,0.1787938793879388,0.45728511530398325,0.1787938793879388,0.9694444444444444,0.1787938793879388,1.0426100628930817,0.1787938793879388,0.9694444444444444,0.1787938793879388,1.1523584905660378
79,0.1810861086108611,0.6950733752620545,0.1810861086108611,0.45728511530398325,0.1810861086108611,0.9694444444444444,0.1810861086108611,1.0426100628930817,0.1810861086108611,0.9694444444444444,0.1810861086108611,1.1523584905660378
80,0.18337833783378338,0.6950733752620545,0.18337833783378338,0.45728511530398325,0.18337833783378338,0.9694444444444444,0.18337833783378338,1.0426100628930817,0.18337833783378338,0.9694444444444444,0.18337833783378338,1.1523584905660378
81,0.18567056705670568,0.6950733752620545,0.18567056705670568,0.45728511530398325,0.18567056705670568,0.9694444444444444,0.18567056705670568,1.0426100628930817,0.18567056705670568,0.9694444444444444,0.18567056705670568,1.1523584905660378
82,0.18796279627962797,0.6950733752620545,0.18796279627962797,0.45728511530398325,0.18796279627962797,0.9694444444444444,0.18796279627962797,1.0426100628930817,0.18796279627962797,0.9694444444444444,0.18796279627962797,1.1523584905660378
83,0.19025502550255027,0.6950733752620545,0.19025502550255027,0.4389937106918239,0.19025502550255027,0.9694444444444444,0.19025502550255027,1.0426100628930817,0.19025502550255027,0.9694444444444444,0.19025502550255027,1.1340670859538784
84,0.19254725472547257,0.6950733752620545,0.19254725472547257,0.4389937106918239,0.19254725472547257,0.9694444444444444,0.19254725472547257,1.060901467505241,0.19254725472547257,0.9694444444444444,0.19254725472547257,1.1340670859538784
85,0.19483948394839484,0.6950733752620545,0.19483948394839484,0.4389937106918239,0.19483948394839484,0.9694444444444444,0.19483948394839484,1.060901467505241,0.19483948394839484,0.9694444444444444,0.19483948394839484,1.115775681341719
86,0.19713171317131714,0.6950733752620545,0.19713171317131714,0.4389937106918239,0.19713171317131714,0.9694444444444444,0.19713171317131714,1.060901467505241,0.19713171317131714,0.9694444444444444,0.19713171317131714,1.115775681341719
87,0.19942394239423944,0.6950733752620545,0.19942394239423944,0.4389937106918239,0.19942394239423944,0.9694444444444444,0.19942394239423944,1.060901467505241,0.19942394239423944,0.9694444444444444,0.19942394239423944,1.115775681341719
88,0.20171617161716174,0.6950733752620545,0.20171617161716174,0.4389937106918239,0.20171617161716174,0.9694444444444444,0.20171617161716174,1.060901467505241,0.20171617161716174,0.9694444444444444,0.20171617161716174,1.115775681341719
89,0.204008400840084,0.6767819706498952,0.204008400840084,0.4389937106918239,0.204008400840084,0.9694444444444444,0.204008400840084,1.0791928721174004,0.204008400840084,0.9694444444444444,0.204008400840084,1.1340670859538784
90,0.2063006300630063,0.6767819706498952,0.2063006300630063,0.4389937106918239,0.2063006300630063,0.9511530398322852,0.2063006300630063,1.0791928721174004,0.2063006300630063,0.9694444444444444,0.2063006300630063,1.1706498951781972
91,0.2085928592859286,0.6767819706498952,0.2085928592859286,0.4389937106918239,0.2085928592859286,0.9328616352201258,0.2085928592859286,1.0791928721174004,0.2085928592859286,0.9694444444444444,0.2085928592859286,1.1889412997903563
92,0.2108850885088509,0.6767819706498952,0.2108850885088509,0.4389937106918239,0.2108850885088509,0.9328616352201258,0.2108850885088509,1.0974842767295598,0.2108850885088509,0.9694444444444444,0.2108850885088509,1.1889412997903563
93,0.2131773177317732,0.6767819706498952,0.2131773177317732,0.4389937106918239,0.2131773177317732,0.9145702306079665,0.2131773177317732,1.0974842767295598,0.2131773177317732,0.9694444444444444,0.2131773177317732,1.1889412997903563
94,0.21546954695469547,0.6767819706498952,0.21546954695469547,0.4389937106918239,0.21546954695469547,0.9145702306079665,0.21546954695469547,1.115775681341719,0.21546954695469547,0.9694444444444444,0.21546954695469547,1.1889412997903563
95,0.21776177617761777,0.6584905660377358,0.21776177617761777,0.4389937106918239,0.21776177617761777,0.9145702306079665,0.21776177617761777,1.115775681341719,0.21776177617761777,0.9694444444444444,0.21776177617761777,1.1889412997903563
96,0.22005400540054007,0.6219077568134173,0.22005400540054007,0.4389937106918239,0.22005400540054007,0.9145702306079665,0.22005400540054007,1.1340670859538784,0.22005400540054007,0.9694444444444444,0.22005400540054007,1.1889412997903563
97,0.22234623462346237,0.45728511530398325,0.22234623462346237,0.4389937106918239,0.22234623462346237,0.9328616352201258,0.22234623462346237,1.1340670859538784,0.22234623462346237,0.9694444444444444,0.22234623462346237,1.1889412997903563
98,0.22463846384638467,0.3841194968553459,0.22463846384638467,0.4389937106918239,0.22463846384638467,0.9511530398322852,0.22463846384638467,1.1523584905660378,0.22463846384638467,0.7499475890985325,0.22463846384638467,1.1889412997903563
99,0.22693069306930694,0.34753668763102724,0.22693069306930694,0.4389937106918239,0.22693069306930694,0.9511530398322852,0.22693069306930694,1.1706498951781972,0.22693069306930694,0.7133647798742139,0.22693069306930694,1.1889412997903563
100,0.22922292229222924,0.3292452830188679,0.22922292229222924,0.4389937106918239,0.22922292229222924,0.9694444444444444,0.22922292229222924,1.1889412997903563,0.22922292229222924,0.6767819706498952,0.22922292229222924,1.1889412997903563
101,0.23151515151515153,0.3292452830188679,0.23151515151515153,0.4389937106918239,0.23151515151515153,0.9877358490566038,0.23151515151515153,1.2072327044025157,0.23151515151515153,0.6584905660377358,0.23151515151515153,1.1889412997903563
102,0.23380738073807383,0.31095387840670863,0.23380738073807383,0.4389937106918239,0.23380738073807383,1.006027253668763,0.23380738073807383,1.2072327044025157,0.23380738073807383,0.6401991614255765,0.23380738073807383,1.1889412997903563
103,0.2360996099609961,0.31095387840670863,0.2360996099609961,0.4389937106918239,0.2360996099609961,1.0243186582809225,0.2360996099609961,1.2255241090146751,0.2360996099609961,0.6219077568134173,0.2360996099609961,1.1889412997903563
104,0.2383918391839184,0.31095387840670863,0.2383918391839184,0.4389937106918239,0.2383918391839184,1.0426100628930817,0.2383918391839184,1.2438155136268345,0.2383918391839184,0.5853249475890986,0.2383918391839184,1.1889412997903563
105,0.2406840684068407,0.31095387840670863,0.2406840684068407,0.4389937106918239,0.2406840684068407,1.0426100628930817,0.2406840684068407,1.2438155136268345,0.2406840684068407,0.5487421383647799,0.2406840684068407,1.1889412997903563
106,0.242976297629763,0.31095387840670863,0.242976297629763,0.4389937106918239,0.242976297629763,1.060901467505241,0.242976297629763,1.2621069182389937,0.242976297629763,0.4938679245283019,0.242976297629763,1.1889412997903563
107,0.2452685268526853,0.3292452830188679,0.2452685268526853,0.4389937106918239,0.2452685268526853,1.0791928721174004,0.2452685268526853,1.2621069182389937,0.2452685268526853,0.3658280922431866,0.2452685268526853,1.1889412997903563
108,0.24756075607560757,0.34753668763102724,0.24756075607560757,0.4389937106918239,0.24756075607560757,1.0974842767295598,0.24756075607560757,1.280398322851153,0.24756075607560757,0.27437106918238996,0.24756075607560757,1.1889412997903563
109,0.24985298529852987,0.3658280922431866,0.24985298529852987,0.4389937106918239,0.24985298529852987,1.115775681341719,0.24985298529852987,1.280398322851153,0.24985298529852987,0.20120545073375262,0.24985298529852987,1.1889412997903563
110,0.25214521452145217,0.40241090146750524,0.25214521452145217,0.4389937106918239,0.25214521452145217,1.1340670859538784,0.25214521452145217,1.280398322851153,0.25214521452145217,0.14633123689727465,0.25214521452145217,1.1706498951781972
111,0.25443744374437444,0.4207023060796646,0.25443744374437444,0.4389937106918239,0.25443744374437444,1.1523584905660378,0.25443744374437444,1.2986897274633125,0.25443744374437444,0.10974842767295598,0.25443744374437444,0.7682389937106918
112,0.25672967296729676,0.45728511530398325,0.25672967296729676,0.4389937106918239,0.25672967296729676,1.1889412997903563,0.25672967296729676,1.3169811320754716,0.25672967296729676,0.09145702306079664,0.25672967296729676,0.6950733752620545
113,0.25902190219021903,0.4755765199161426,0.25902190219021903,0.4389937106918239,0.25902190219021903,1.2255241090146751,0.25902190219021903,1.3535639412997904,0.25902190219021903,0.10974842767295598,0.25902190219021903,0.6584905660377358
114,0.26131413141314136,0.4755765199161426,0.26131413141314136,0.4389937106918239,0.26131413141314136,1.2621069182389937,0.26131413141314136,1.390146750524109,0.26131413141314136,0.1280398322851153,0.26131413141314136,0.6401991614255765
115,0.26360636063606363,0.4938679245283019,0.26360636063606363,0.4389937106918239,0.26360636063606363,1.2986897274633125,0.26360636063606363,1.4084381551362684,0.26360636063606363,0.14633123689727465,0.26360636063606363,0.6219077568134173
116,0.2658985898589859,0.5121593291404613,0.2658985898589859,0.4389937106918239,0.2658985898589859,1.335272536687631,0.2658985898589859,1.4267295597484277,0.2658985898589859,0.16462264150943395,0.2658985898589859,0.6036163522012579
117,0.2681908190819082,0.5121593291404613,0.2681908190819082,0.4389937106918239,0.2681908190819082,1.3718553459119498,0.2681908190819082,1.4450209643605871,0.2681908190819082,0.20120545073375262,0.2681908190819082,0.6036163522012579
118,0.2704830483048305,0.5304507337526205,0.2704830483048305,0.4389937106918239,0.2704830483048305,1.4084381551362684,0.2704830483048305,1.4633123689727463,0.2704830483048305,0.2560796645702306,0.2704830483048305,0.6219077568134173
119,0.27277527752775277,0.5304507337526205,0.27277527752775277,0.4389937106918239,0.27277527752775277,1.4450209643605871,0.27277527752775277,1.4633123689727463,0.27277527752775277,0.34753668763102724,0.27277527752775277,0.6401991614255765
120,0.2750675067506751,0.5487421383647799,0.2750675067506751,0.4389937106918239,0.2750675067506751,1.4633123689727463,0.2750675067506751,1.4816037735849057,0.2750675067506751,0.5121593291404613,0.2750675067506751,0.6584905660377358
121,0.27735973597359737,0.5670335429769392,0.27735973597359737,0.4389937106918239,0.27735973597359737,1.499895178197065,0.27735973597359737,1.4816037735849057,0.27735973597359737,0.6401991614255765,0.27735973597359737,0.6950733752620545
122,0.2796519651965197,0.5853249475890986,0.2796519651965197,0.4389937106918239,0.2796519651965197,1.5181865828092242,0.2796519651965197,1.4816037735849057,0.2796519651965197,0.6950733752620545,0.2796519651965197,0.7499475890985325
123,0.28194419441944196,0.6036163522012579,0.28194419441944196,0.4389937106918239,0.28194419441944196,1.5181865828092242,0.28194419441944196,1.499895178197065,0.28194419441944196,0.7316561844863732,0.28194419441944196,0.7865303983228512
124,0.28423642364236423,0.6036163522012579,0.28423642364236423,0.4389937106918239,0.28423642364236423,1.5364779874213836,0.28423642364236423,1.5181865828092242,0.28423642364236423,0.7682389937106918,0.28423642364236423,0.8048218029350105
125,0.28652865286528656,0.6219077568134173,0.28652865286528656,0.4389937106918239,0.28652865286528656,1.554769392033543,0.28652865286528656,1.5181865828092242,0.28652865286528656,0.7865303983228512,0.28652865286528656,0.8048218029350105
126,0.28882088208820883,0.6401991614255765,0.28882088208820883,0.4389937106918239,0.28882088208820883,1.554769392033543,0.28882088208820883,1.5364779874213836,0.28882088208820883,0.8231132075471699,0.28882088208820883,0.8048218029350105
127,0.29111311131113116,0.6401991614255765,0.29111311131113116,0.4389937106918239,0.29111311131113116,1.5730607966457024,0.29111311131113116,1.554769392033543,0.29111311131113116,0.8414046121593292,0.29111311131113116,0.8048218029350105
128,0.2934053405340534,0.6584905660377358,0.2934053405340534,0.4389937106918239,0.2934053405340534,1.5730607966457024,0.2934053405340534,1.5730607966457024,0.2934053405340534,0.8414046121593292,0.2934053405340534,0.8048218029350105
129,0.2956975697569757,0.6767819706498952,0.2956975697569757,0.4389937106918239,0.2956975697569757,1.5730607966457024,0.2956975697569757,1.5730607966457024,0.2956975697569757,0.8596960167714884,0.2956975697569757,0.8048218029350105
130,0.297989798979898,0.6767819706498952,0.297989798979898,0.4389937106918239,0.297989798979898,1.5913522012578616,0.297989798979898,1.5730607966457024,0.297989798979898,0.8779874213836478,0.297989798979898,0.8048218029350105
131,0.3002820282028203,0.6950733752620545,0.3002820282028203,0.4389937106918239,0.3002820282028203,1.5913522012578616,0.3002820282028203,1.5730607966457024,0.3002820282028203,0.8779874213836478,0.3002820282028203,0.8048218029350105
132,0.3025742574257426,0.6950733752620545,0.3025742574257426,0.4389937106918239,0.3025742574257426,1.5913522012578616,0.3025742574257426,1.5730607966457024,0.3025742574257426,0.8962788259958071,0.3025742574257426,0.8048218029350105
133,0.3048664866486649,0.6950733752620545,0.3048664866486649,0.4389937106918239,0.3048664866486649,1.609643605870021,0.3048664866486649,1.5730607966457024,0.3048664866486649,0.8962788259958071,0.3048664866486649,0.8048218029350105
134,0.30715871587158716,0.7133647798742139,0.30715871587158716,0.4389937106918239,0.30715871587158716,1.609643605870021,0.30715871587158716,1.5730607966457024,0.30715871587158716,0.9145702306079665,0.30715871587158716,0.8048218029350105
135,0.3094509450945095,0.7133647798742139,0.3094509450945095,0.4389937106918239,0.3094509450945095,1.609643605870021,0.3094509450945095,1.5730607966457024,0.3094509450945095,0.9145702306079665,0.3094509450945095,0.8048218029350105
136,0.31174317431743176,0.7133647798742139,0.31174317431743176,0.4389937106918239,0.31174317431743176,1.609643605870021,0.31174317431743176,1.5730607966457024,0.31174317431743176,0.9145702306079665,0.31174317431743176,0.8048218029350105
137,0.31403540354035403,0.7133647798742139,0.31403540354035403,0.4389937106918239,0.31403540354035403,1.609643605870021,0.31403540354035403,1.5730607966457024,0.31403540354035403,0.9145702306079665,0.31403540354035403,0.8048218029350105
138,0.31632763276327636,0.7133647798742139,0.31632763276327636,0.4389937106918239,0.31632763276327636,1.609643605870021,0.31632763276327636,1.5730607966457024,0.31632763276327636,0.9145702306079665,0.31632763276327636,0.8048218029350105
139,0.3186198619861986,0.7133647798742139,0.3186198619861986,0.4389937106918239,0.3186198619861986,1.609643605870021,0.3186198619861986,1.5730607966457024,0.3186198619861986,0.9145702306079665,0.3186198619861986,0.8048218029350105
140,0.32091209120912095,0.7316561844863732,0.32091209120912095,0.4389937106918239,0.32091209120912095,1.609643605870021,0.32091209120912095,1.5730607966457024,0.32091209120912095,0.9145702306079665,0.32091209120912095,0.8048218029350105
141,0.3232043204320432,0.7316561844863732,0.3232043204320432,0.4389937106918239,0.3232043204320432,1.609643605870021,0.3232043204320432,1.5730607966457024,0.3232043204320432,0.9328616352201258,0.3232043204320432,0.8048218029350105
142,0.3254965496549655,0.7316561844863732,0.3254965496549655,0.4389937106918239,0.3254965496549655,1.609643605870021,0.3254965496549655,1.5730607966457024,0.3254965496549655,0.9328616352201258,0.3254965496549655,0.8048218029350105
143,0.3277887788778878,0.7316561844863732,0.3277887788778878,0.4389937106918239,0.3277887788778878,1.609643605870021,0.3277887788778878,1.5730607966457024,0.3277887788778878,0.9328616352201258,0.3277887788778878,0.8231132075471699
144,0.3300810081008101,0.7316561844863732,0.3300810081008101,0.4389937106918239,0.3300810081008101,1.609643605870021,0.3300810081008101,1.5730607966457024,0.3300810081008101,0.9328616352201258,0.3300810081008101,0.8414046121593292
145,0.3323732373237324,0.7316561844863732,0.3323732373237324,0.4389937106918239,0.3323732373237324,1.609643605870021,0.3323732373237324,1.5730607966457024,0.3323732373237324,0.9328616352201258,0.3323732373237324,0.9694444444444444
146,0.3346654665466547,0.7316561844863732,0.3346654665466547,0.4389937106918239,0.3346654665466547,1.609643605870021,0.3346654665466547,1.5730607966457024,0.3346654665466547,0.9328616352201258,0.3346654665466547,1.006027253668763
147,0.33695769576957696,0.7316561844863732,0.33695769576957696,0.4389937106918239,0.33695769576957696,1.609643605870021,0.33695769576957696,1.5730607966457024,0.33695769576957696,0.9328616352201258,0.33695769576957696,1.0243186582809225
148,0.3392499249924993,0.7499475890985325,0.3392499249924993,0.4389937106918239,0.3392499249924993,1.609643605870021,0.3392499249924993,1.554769392033543,0.3392499249924993,0.9511530398322852,0.3392499249924993,1.0243186582809225
149,0.34154215421542156,0.7499475890985325,0.34154215421542156,0.4389937106918239,0.34154215421542156,1.609643605870021,0.34154215421542156,1.5364779874213836,0.34154215421542156,0.9511530398322852,0.34154215421542156,1.0243186582809225
150,0.3438343834383439,0.7499475890985325,0.3438343834383439,0.4389937106918239,0.3438343834383439,1.609643605870021,0.3438343834383439,1.5181865828092242,0.3438343834383439,0.9511530398322852,0.3438343834383439,1.0243186582809225
151,0.34612661266126615,0.7499475890985325,0.34612661266126615,0.4389937106918239,0.34612661266126615,1.609643605870021,0.34612661266126615,1.499895178197065,0.34612661266126615,0.9694444444444444,0.34612661266126615,1.0243186582809225
152,0.3484188418841884,0.7682389937106918,0.3484188418841884,0.4389937106918239,0.3484188418841884,1.609643605870021,0.3484188418841884,1.499895178197065,0.3484188418841884,0.9877358490566038,0.3484188418841884,1.0243186582809225
153,0.35071107110711075,0.7682389937106918,0.35071107110711075,0.4389937106918239,0.35071107110711075,1.609643605870021,0.35071107110711075,1.4816037735849057,0.35071107110711075,1.0243186582809225,0.35071107110711075,1.0243186582809225
154,0.353003300330033,0.7682389937106918,0.353003300330033,0.4389937106918239,0.353003300330033,1.609643605870021,0.353003300330033,1.4633123689727463,0.353003300330033,1.060901467505241,0.353003300330033,1.0426100628930817
155,0.35529552955295535,0.7865303983228512,0.35529552955295535,0.4389937106918239,0.35529552955295535,1.609643605870021,0.35529552955295535,1.4450209643605871,0.35529552955295535,1.0791928721174004,0.35529552955295535,1.0426100628930817
156,0.3575877587758776,0.7865303983228512,0.3575877587758776,0.4389937106918239,0.3575877587758776,1.609643605870021,0.3575877587758776,1.4084381551362684,0.3575877587758776,1.0791928721174004,0.3575877587758776,1.0426100628930817
157,0.3598799879987999,0.7865303983228512,0.3598799879987999,0.4389937106918239,0.3598799879987999,1.5913522012578616,0.3598799879987999,1.3718553459119498,0.3598799879987999,1.0791928721174004,0.3598799879987999,1.0426100628930817
158,0.3621722172217222,0.7865303983228512,0.3621722172217222,0.4389937106918239,0.3621722172217222,1.5730607966457024,0.3621722172217222,1.335272536687631,0.3621722172217222,1.0791928721174004,0.3621722172217222,1.0426100628930817
159,0.3644644464446445,0.7865303983228512,0.3644644464446445,0.4389937106918239,0.3644644464446445,1.554769392033543,0.3644644464446445,1.3169811320754716,0.3644644464446445,1.0791928721174004,0.3644644464446445,1.0426100628930817
160,0.36675667566756676,0.7865303983228512,0.36675667566756676,0.4389937106918239,0.36675667566756676,1.5364779874213836,0.36675667566756676,1.2986897274633125,0.36675667566756676,1.0791928721174004,0.36675667566756676,1.0426100628930817
161,0.3690489048904891,0.7865303983228512,0.3690489048904891,0.4389937106918239,0.3690489048904891,1.5181865828092242,0.3690489048904891,1.280398322851153,0.3690489048904891,1.0791928721174004,0.3690489048904891,1.060901467505241
162,0.37134113411341135,0.7865303983228512,0.37134113411341135,0.45728511530398325,0.37134113411341135,1.5181865828092242,0.37134113411341135,1.2621069182389937,0.37134113411341135,1.0791928721174004,0.37134113411341135,1.060901467505241
163,0.3736333633363337,0.7865303983228512,0.3736333633363337,0.45728511530398325,0.3736333633363337,1.499895178197065,0.3736333633363337,1.2621069182389937,0.3736333633363337,1.0791928721174004,0.3736333633363337,1.0791928721174004
164,0.37592559255925595,0.7865303983228512,0.37592559255925595,0.45728511530398325,0.37592559255925595,1.499895178197065,0.37592559255925595,1.2438155136268345,0.37592559255925595,1.0791928721174004,0.37592559255925595,1.0791928721174004
165,0.3782178217821782,0.7865303983228512,0.3782178217821782,0.45728511530398325,0.3782178217821782,1.499895178197065,0.3782178217821782,1.2255241090146751,0.3782178217821782,1.0791928721174004,0.3782178217821782,1.0974842767295598
166,0.38051005100510055,0.7865303983228512,0.38051005100510055,0.45728511530398325,0.38051005100510055,1.4816037735849057,0.38051005100510055,1.2072327044025157,0.38051005100510055,1.0791928721174004,0.38051005100510055,1.115775681341719
167,0.3828022802280228,0.7865303983228512,0.3828022802280228,0.45728511530398325,0.3828022802280228,1.4816037735849057,0.3828022802280228,1.1889412997903563,0.3828022802280228,1.0791928721174004,0.3828022802280228,1.1340670859538784
168,0.38509450945094514,0.7865303983228512,0.38509450945094514,0.45728511530398325,0.38509450945094514,1.4633123689727463,0.38509450945094514,1.1706498951781972,0.38509450945094514,1.0791928721174004,0.38509450945094514,1.1523584905660378
169,0.3873867386738674,0.7865303983228512,0.3873867386738674,0.45728511530398325,0.3873867386738674,1.4633123689727463,0.3873867386738674,1.1523584905660378,0.3873867386738674,1.0791928721174004,0.3873867386738674,1.1706498951781972
170,0.3896789678967897,0.7865303983228512,0.3896789678967897,0.45728511530398325,0.3896789678967897,1.4450209643605871,0.3896789678967897,1.1340670859538784,0.3896789678967897,1.0791928721174004,0.3896789678967897,1.1889412997903563
171,0.391971197119712,0.7865303983228512,0.391971197119712,0.45728511530398325,0.391971197119712,1.4450209643605871,0.391971197119712,1.1340670859538784,0.391971197119712,1.0791928721174004,0.391971197119712,1.1889412997903563
172,0.3942634263426343,0.7865303983228512,0.3942634263426343,0.45728511530398325,0.3942634263426343,1.4450209643605871,0.3942634263426343,1.115775681341719,0.3942634263426343,1.0791928721174004,0.3942634263426343,1.1889412997903563
173,0.3965556555655566,0.7865303983228512,0.3965556555655566,0.45728511530398325,0.3965556555655566,1.4267295597484277,0.3965556555655566,1.115775681341719,0.3965556555655566,1.0791928721174004,0.3965556555655566,1.1889412997903563
174,0.3988478847884789,0.7865303983228512,0.3988478847884789,0.45728511530398325,0.3988478847884789,1.4267295597484277,0.3988478847884789,1.0974842767295598,0.3988478847884789,1.0974842767295598,0.3988478847884789,1.1889412997903563
175,0.40114011401140115,0.7682389937106918,0.40114011401140115,0.45728511530398325,0.40114011401140115,1.4084381551362684,0.40114011401140115,1.0974842767295598,0.40114011401140115,1.0974842767295598,0.40114011401140115,1.1889412997903563
176,0.4034323432343235,0.7682389937106918,0.4034323432343235,0.45728511530398325,0.4034323432343235,1.4084381551362684,0.4034323432343235,1.0791928721174004,0.4034323432343235,1.0974842767295598,0.4034323432343235,1.1889412997903563
177,0.40572457245724575,0.7682389937106918,0.40572457245724575,0.45728511530398325,0.40572457245724575,1.3718553459119498,0.40572457245724575,1.0791928721174004,0.40572457245724575,1.0974842767295598,0.40572457245724575,1.1889412997903563
178,0.408016801680168,0.7682389937106918,0.408016801680168,0.45728511530398325,0.408016801680168,1.2621069182389937,0.408016801680168,1.060901467505241,0.408016801680168,1.0974842767295598,0.408016801680168,1.1889412997903563
179,0.41030903090309034,0.7682389937106918,0.41030903090309034,0.45728511530398325,0.41030903090309034,1.2072327044025157,0.41030903090309034,1.060901467505241,0.41030903090309034,1.115775681341719,0.41030903090309034,1.1889412997903563
180,0.4126012601260126,0.7682389937106918,0.4126012601260126,0.45728511530398325,0.4126012601260126,1.1706498951781972,0.4126012601260126,1.0426100628930817,0.4126012601260126,1.115775681341719,0.4126012601260126,1.1889412997903563
181,0.41489348934893494,0.7682389937106918,0.41489348934893494,0.45728511530398325,0.41489348934893494,1.1523584905660378,0.41489348934893494,1.0426100628930817,0.41489348934893494,1.115775681341719,0.41489348934893494,1.1889412997903563
182,0.4171857185718572,0.7682389937106918,0.4171857185718572,0.45728511530398325,0.4171857185718572,1.1523584905660378,0.4171857185718572,1.0243186582809225,0.4171857185718572,1.115775681341719,0.4171857185718572,1.1889412997903563
183,0.4194779477947795,0.7682389937106918,0.4194779477947795,0.45728511530398325,0.4194779477947795,1.1340670859538784,0.4194779477947795,1.0243186582809225,0.4194779477947795,1.115775681341719,0.4194779477947795,1.1889412997903563
184,0.4217701770177018,0.7682389937106918,0.4217701770177018,0.45728511530398325,0.4217701770177018,1.1340670859538784,0.4217701770177018,1.0243186582809225,0.4217701770177018,1.115775681341719,0.4217701770177018,1.1889412997903563
185,0.4240624062406241,0.7682389937106918,0.4240624062406241,0.45728511530398325,0.4240624062406241,1.1340670859538784,0.4240624062406241,1.0243186582809225,0.4240624062406241,1.115775681341719,0.4240624062406241,1.1889412997903563
186,0.4263546354635464,0.7682389937106918,0.4263546354635464,0.45728511530398325,0.4263546354635464,1.115775681341719,0.4263546354635464,1.006027253668763,0.4263546354635464,1.115775681341719,0.4263546354635464,1.1889412997903563
187,0.4286468646864687,0.7682389937106918,0.4286468646864687,0.45728511530398325,0.4286468646864687,1.0974842767295598,0.4286468646864687,1.006027253668763,0.4286468646864687,1.115775681341719,0.4286468646864687,1.1889412997903563
188,0.43093909390939095,0.7682389937106918,0.43093909390939095,0.4389937106918239,0.43093909390939095,1.0974842767295598,0.43093909390939095,1.006027253668763,0.43093909390939095,1.115775681341719,0.43093909390939095,1.1889412997903563
189,0.4332313231323133,0.7499475890985325,0.4332313231323133,0.4389937106918239,0.4332313231323133,1.060901467505241,0.4332313231323133,1.006027253668763,0.4332313231323133,1.115775681341719,0.4332313231323133,1.1706498951781972
190,0.43552355235523554,0.7499475890985325,0.43552355235523554,0.4389937106918239,0.43552355235523554,1.0243186582809225,0.43552355235523554,1.006027253668763,0.43552355235523554,1.115775681341719,0.43552355235523554,1.1523584905660378
191,0.43781578157815787,0.7499475890985325,0.43781578157815787,0.4389937106918239,0.43781578157815787,1.006027253668763,0.43781578157815787,1.006027253668763,0.43781578157815787,1.115775681341719,0.43781578157815787,1.115775681341719
192,0.44010801080108014,0.7682389937106918,0.44010801080108014,0.4389937106918239,0.44010801080108014,0.9877358490566038,0.44010801080108014,1.0243186582809225,0.44010801080108014,1.115775681341719,0.44010801080108014,1.0791928721174004
193,0.4424002400240024,0.7682389937106918,0.4424002400240024,0.4389937106918239,0.4424002400240024,0.9694444444444444,0.4424002400240024,1.0243186582809225,0.4424002400240024,1.115775681341719,0.4424002400240024,1.060901467505241
194,0.44469246924692474,0.7682389937106918,0.44469246924692474,0.4389937106918239,0.44469246924692474,0.9694444444444444,0.44469246924692474,1.0243186582809225,0.44469246924692474,1.115775681341719,0.44469246924692474,1.060901467505241
195,0.446984698469847,0.7682389937106918,0.446984698469847,0.4389937106918239,0.446984698469847,0.9694444444444444,0.446984698469847,1.0243186582809225,0.446984698469847,1.115775681341719,0.446984698469847,1.0426100628930817
196,0.44927692769276933,0.7865303983228512,0.44927692769276933,0.4389937106918239,0.44927692769276933,0.9694444444444444,0.44927692769276933,1.0243186582809225,0.44927692769276933,1.115775681341719,0.44927692769276933,1.0243186582809225
197,0.4515691569156916,0.7865303983228512,0.4515691569156916,0.4389937106918239,0.4515691569156916,0.9877358490566038,0.4515691569156916,1.0426100628930817,0.4515691569156916,1.115775681341719,0.4515691569156916,1.0243186582809225
198,0.4538613861386139,0.7865303983228512,0.4538613861386139,0.4389937106918239,0.4538613861386139,0.9877358490566038,0.4538613861386139,1.0426100628930817,0.4538613861386139,1.1340670859538784,0.4538613861386139,1.0243186582809225
199,0.4561536153615362,0.7865303983228512,0.4561536153615362,0.4389937106918239,0.4561536153615362,0.9877358490566038,0.4561536153615362,1.0426100628930817,0.4561536153615362,1.1340670859538784,0.4561536153615362,1.0243186582809225
200,0.4584458445844585,0.7865303983228512,0.4584458445844585,0.4389937106918239,0.4584458445844585,0.9877358490566038,0.4584458445844585,1.0426100628930817,0.4584458445844585,1.1340670859538784,0.4584458445844585,1.0426100628930817
201,0.46073807380738074,0.7865303983228512,0.46073807380738074,0.4389937106918239,0.46073807380738074,0.9877358490566038,0.46073807380738074,1.060901467505241,0.46073807380738074,1.1340670859538784,0.46073807380738074,1.0791928721174004
202,0.46303030303030307,0.7865303983228512,0.46303030303030307,0.4389937106918239,0.46303030303030307,0.9877358490566038,0.46303030303030307,1.060901467505241,0.46303030303030307,1.1340670859538784,0.46303030303030307,1.0974842767295598
203,0.46532253225322534,0.7865303983228512,0.46532253225322534,0.4389937106918239,0.46532253225322534,0.9877358490566038,0.46532253225322534,1.060901467505241,0.46532253225322534,1.1340670859538784,0.46532253225322534,1.1340670859538784
204,0.46761476147614767,0.7865303983228512,0.46761476147614767,0.4389937106918239,0.46761476147614767,0.9877358490566038,0.46761476147614767,1.060901467505241,0.46761476147614767,1.1340670859538784,0.46761476147614767,1.1340670859538784
205,0.46990699069906994,0.7865303983228512,0.46990699069906994,0.4389937106918239,0.46990699069906994,0.9877358490566038,0.46990699069906994,1.060901467505241,0.46990699069906994,1.1523584905660378,0.46990699069906994,1.1523584905660378
206,0.4721992199219922,0.7865303983228512,0.4721992199219922,0.4389937106918239,0.4721992199219922,0.9877358490566038,0.4721992199219922,1.060901467505241,0.4721992199219922,1.1523584905660378,0.4721992199219922,1.1523584905660378
207,0.47449144914491453,0.7865303983228512,0.47449144914491453,0.4389937106918239,0.47449144914491453,0.9877358490566038,0.47449144914491453,1.060901467505241,0.47449144914491453,1.1523584905660378,0.47449144914491453,1.1706498951781972
208,0.4767836783678368,0.7865303983228512,0.4767836783678368,0.4389937106918239,0.4767836783678368,0.9877358490566038,0.4767836783678368,1.060901467505241,0.4767836783678368,1.1706498951781972,0.4767836783678368,1.1706498951781972
209,0.47907590759075913,0.7865303983228512,0.47907590759075913,0.4389937106918239,0.47907590759075913,0.9877358490566038,0.47907590759075913,1.060901467505241,0.47907590759075913,1.1889412997903563,0.47907590759075913,1.1706498951781972
210,0.4813681368136814,0.7865303983228512,0.4813681368136814,0.4389937106918239,0.4813681368136814,0.9877358490566038,0.4813681368136814,1.060901467505241,0.4813681368136814,1.2072327044025157,0.4813681368136814,1.1706498951781972
211,0.4836603660366037,0.7865303983228512,0.4836603660366037,0.4389937106918239,0.4836603660366037,0.9877358490566038,0.4836603660366037,1.060901467505241,0.4836603660366037,1.2255241090146751,0.4836603660366037,1.1889412997903563
212,0.485952595259526,0.7865303983228512,0.485952595259526,0.4389937106918239,0.485952595259526,0.9877358490566038,0.485952595259526,1.060901467505241,0.485952595259526,1.2438155136268345,0.485952595259526,1.1889412997903563
213,0.48824482448244827,0.7865303983228512,0.48824482448244827,0.4389937106918239,0.48824482448244827,0.9877358490566038,0.48824482448244827,1.060901467505241,0.48824482448244827,1.2621069182389937,0.48824482448244827,1.2072327044025157
214,0.4905370537053706,0.7865303983228512,0.4905370537053706,0.4389937106918239,0.4905370537053706,0.9877358490566038,0.4905370537053706,1.060901467505241,0.4905370537053706,1.280398322851153,0.4905370537053706,1.2255241090146751
215,0.49282928292829287,0.7865303983228512,0.49282928292829287,0.4389937106918239,0.49282928292829287,0.9877358490566038,0.49282928292829287,1.060901467505241,0.49282928292829287,1.280398322851153,0.49282928292829287,1.2438155136268345
216,0.49512151215121514,0.7865303983228512,0.49512151215121514,0.4389937106918239,0.49512151215121514,1.006027253668763,0.49512151215121514,1.060901467505241,0.49512151215121514,1.2986897274633125,0.49512151215121514,1.2438155136268345
217,0.49741374137413746,0.7865303983228512,0.49741374137413746,0.4389937106918239,0.49741374137413746,1.006027253668763,0.49741374137413746,1.060901467505241,0.49741374137413746,1.2986897274633125,0.49741374137413746,1.280398322851153
218,0.49970597059705973,0.7865303983228512,0.49970597059705973,0.4389937106918239,0.49970597059705973,1.006027253668763,0.49970597059705973,1.060901467505241,0.49970597059705973,1.3169811320754716,0.49970597059705973,1.2986897274633125
219,0.5019981998199821,0.7682389937106918,0.5019981998199821,0.4389937106918239,0.5019981998199821,1.006027253668763,0.5019981998199821,1.060901467505241,0.5019981998199821,1.3169811320754716,0.5019981998199821,1.3169811320754716
220,0.5042904290429043,0.7682389937106918,0.5042904290429043,0.4389937106918239,0.5042904290429043,1.006027253668763,0.5042904290429043,1.060901467505241,0.5042904290429043,1.335272536687631,0.5042904290429043,1.3169811320754716
221,0.5065826582658266,0.7682389937106918,0.5065826582658266,0.4389937106918239,0.5065826582658266,1.006027253668763,0.5065826582658266,1.060901467505241,0.5065826582658266,1.335272536687631,0.5065826582658266,1.335272536687631
222,0.5088748874887489,0.7682389937106918,0.5088748874887489,0.4389937106918239,0.5088748874887489,1.006027253668763,0.5088748874887489,1.0426100628930817,0.5088748874887489,1.3535639412997904,0.5088748874887489,1.3535639412997904
223,0.5111671167116713,0.7682389937106918,0.5111671167116713,0.4389937106918239,0.5111671167116713,1.006027253668763,0.5111671167116713,0.9694444444444444,0.5111671167116713,1.3535639412997904,0.5111671167116713,1.3718553459119498
224,0.5134593459345935,0.7682389937106918,0.5134593459345935,0.4389937106918239,0.5134593459345935,1.006027253668763,0.5134593459345935,0.9145702306079665,0.5134593459345935,1.3718553459119498,0.5134593459345935,1.3718553459119498
225,0.5157515751575158,0.7682389937106918,0.5157515751575158,0.4389937106918239,0.5157515751575158,1.006027253668763,0.5157515751575158,0.8962788259958071,0.5157515751575158,1.390146750524109,0.5157515751575158,1.390146750524109
226,0.5180438043804381,0.7682389937106918,0.5180438043804381,0.4389937106918239,0.5180438043804381,1.006027253668763,0.5180438043804381,0.8779874213836478,0.5180438043804381,1.390146750524109,0.5180438043804381,1.390146750524109
227,0.5203360336033603,0.7682389937106918,0.5203360336033603,0.4389937106918239,0.5203360336033603,1.006027253668763,0.5203360336033603,0.8596960167714884,0.5203360336033603,1.4084381551362684,0.5203360336033603,1.4084381551362684
228,0.5226282628262827,0.7682389937106918,0.5226282628262827,0.4389937106918239,0.5226282628262827,1.006027253668763,0.5226282628262827,0.8596960167714884,0.5226282628262827,1.4267295597484277,0.5226282628262827,1.4084381551362684
229,0.524920492049205,0.7499475890985325,0.524920492049205,0.4389937106918239,0.524920492049205,1.006027253668763,0.524920492049205,0.8596960167714884,0.524920492049205,1.4267295597484277,0.524920492049205,1.4084381551362684
230,0.5272127212721273,0.7499475890985325,0.5272127212721273,0.4389937106918239,0.5272127212721273,1.006027253668763,0.5272127212721273,0.8414046121593292,0.5272127212721273,1.4450209643605871,0.5272127212721273,1.4267295597484277
231,0.5295049504950495,0.7499475890985325,0.5295049504950495,0.4389937106918239,0.5295049504950495,1.006027253668763,0.5295049504950495,0.8414046121593292,0.5295049504950495,1.4633123689727463,0.5295049504950495,1.4267295597484277
232,0.5317971797179718,0.7499475890985325,0.5317971797179718,0.4389937106918239,0.5317971797179718,1.006027253668763,0.5317971797179718,0.8596960167714884,0.5317971797179718,1.4816037735849057,0.5317971797179718,1.4450209643605871
233,0.5340894089408941,0.7499475890985325,0.5340894089408941,0.4389937106918239,0.5340894089408941,1.006027253668763,0.5340894089408941,0.8596960167714884,0.5340894089408941,1.4816037735849057,0.5340894089408941,1.4633123689727463
234,0.5363816381638165,0.7499475890985325,0.5363816381638165,0.4389937106918239,0.5363816381638165,1.006027253668763,0.5363816381638165,0.8596960167714884,0.5363816381638165,1.499895178197065,0.5363816381638165,1.4816037735849057
235,0.5386738673867387,0.7499475890985325,0.5386738673867387,0.4389937106918239,0.5386738673867387,1.006027253668763,0.5386738673867387,0.8596960167714884,0.5386738673867387,1.499895178197065,0.5386738673867387,1.499895178197065
236,0.540966096609661,0.7316561844863732,0.540966096609661,0.4389937106918239,0.540966096609661,1.0243186582809225,0.540966096609661,0.8779874213836478,0.540966096609661,1.5181865828092242,0.540966096609661,1.5364779874213836
237,0.5432583258325833,0.7316561844863732,0.5432583258325833,0.4389937106918239,0.5432583258325833,1.0243186582809225,0.5432583258325833,0.8779874213836478,0.5432583258325833,1.5181865828092242,0.5432583258325833,1.554769392033543
238,0.5455505550555055,0.7316561844863732,0.5455505550555055,0.4389937106918239,0.5455505550555055,1.0426100628930817,0.5455505550555055,0.8779874213836478,0.5455505550555055,1.5181865828092242,0.5455505550555055,1.5730607966457024
239,0.5478427842784279,0.7316561844863732,0.5478427842784279,0.4389937106918239,0.5478427842784279,1.060901467505241,0.5478427842784279,0.8962788259958071,0.5478427842784279,1.5181865828092242,0.5478427842784279,1.5913522012578616
240,0.5501350135013502,0.7316561844863732,0.5501350135013502,0.4389937106918239,0.5501350135013502,1.060901467505241,0.5501350135013502,0.8962788259958071,0.5501350135013502,1.5181865828092242,0.5501350135013502,1.5913522012578616
241,0.5524272427242725,0.7316561844863732,0.5524272427242725,0.4389937106918239,0.5524272427242725,1.0791928721174004,0.5524272427242725,0.8962788259958071,0.5524272427242725,1.5181865828092242,0.5524272427242725,1.5913522012578616
242,0.5547194719471947,0.7316561844863732,0.5547194719471947,0.4389937106918239,0.5547194719471947,1.0791928721174004,0.5547194719471947,0.8962788259958071,0.5547194719471947,1.5181865828092242,0.5547194719471947,1.5913522012578616
243,0.557011701170117,0.7316561844863732,0.557011701170117,0.4389937106918239,0.557011701170117,1.0791928721174004,0.557011701170117,0.9145702306079665,0.557011701170117,1.5181865828092242,0.557011701170117,1.5913522012578616
244,0.5593039303930394,0.7316561844863732,0.5593039303930394,0.4389937106918239,0.5593039303930394,1.0974842767295598,0.5593039303930394,0.9145702306079665,0.5593039303930394,1.5181865828092242,0.5593039303930394,1.5913522012578616
245,0.5615961596159617,0.7316561844863732,0.5615961596159617,0.4389937106918239,0.5615961596159617,1.0974842767295598,0.5615961596159617,0.9328616352201258,0.5615961596159617,1.5181865828092242,0.5615961596159617,1.5913522012578616
246,0.5638883888388839,0.7316561844863732,0.5638883888388839,0.4389937106918239,0.5638883888388839,1.0974842767295598,0.5638883888388839,0.9511530398322852,0.5638883888388839,1.5181865828092242,0.5638883888388839,1.5913522012578616
247,0.5661806180618062,0.7316561844863732,0.5661806180618062,0.4389937106918239,0.5661806180618062,1.0974842767295598,0.5661806180618062,0.9877358490566038,0.5661806180618062,1.5181865828092242,0.5661806180618062,1.5913522012578616
248,0.5684728472847285,0.7316561844863732,0.5684728472847285,0.4389937106918239,0.5684728472847285,1.115775681341719,0.5684728472847285,1.006027253668763,0.5684728472847285,1.5181865828092242,0.5684728472847285,1.5913522012578616
249,0.5707650765076508,0.7316561844863732,0.5707650765076508,0.4389937106918239,0.5707650765076508,1.115775681341719,0.5707650765076508,1.0243186582809225,0.5707650765076508,1.5181865828092242,0.5707650765076508,1.5913522012578616
250,0.5730573057305731,0.7316561844863732,0.5730573057305731,0.4389937106918239,0.5730573057305731,1.115775681341719,0.5730573057305731,1.0243186582809225,0.5730573057305731,1.5181865828092242,0.5730573057305731,1.5913522012578616
251,0.5753495349534954,0.7316561844863732,0.5753495349534954,0.4389937106918239,0.5753495349534954,1.115775681341719,0.5753495349534954,1.0426100628930817,0.5753495349534954,1.5181865828092242,0.5753495349534954,1.5913522012578616
252,0.5776417641764177,0.7316561844863732,0.5776417641764177,0.4389937106918239,0.5776417641764177,1.115775681341719,0.5776417641764177,1.0426100628930817,0.5776417641764177,1.5181865828092242,0.5776417641764177,1.5913522012578616
253,0.5799339933993399,0.7316561844863732,0.5799339933993399,0.4389937106918239,0.5799339933993399,1.115775681341719,0.5799339933993399,1.0426100628930817,0.5799339933993399,1.5181865828092242,0.5799339933993399,1.5913522012578616
254,0.5822262226222623,0.7316561844863732,0.5822262226222623,0.4389937106918239,0.5822262226222623,1.115775681341719,0.5822262226222623,1.0426100628930817,0.5822262226222623,1.5181865828092242,0.5822262226222623,1.5913522012578616
255,0.5845184518451846,0.7133647798742139,0.5845184518451846,0.4389937106918239,0.5845184518451846,1.115775681341719,0.5845184518451846,1.0426100628930817,0.5845184518451846,1.5181865828092242,0.5845184518451846,1.5913522012578616
256,0.5868106810681069,0.7133647798742139,0.5868106810681069,0.45728511530398325,0.5868106810681069,1.115775681341719,0.5868106810681069,1.0426100628930817,0.5868106810681069,1.5181865828092242,0.5868106810681069,1.5913522012578616
257,0.5891029102910291,0.7133647798742139,0.5891029102910291,0.45728511530398325,0.5891029102910291,1.115775681341719,0.5891029102910291,1.0426100628930817,0.5891029102910291,1.5181865828092242,0.5891029102910291,1.5913522012578616
258,0.5913951395139514,0.7133647798742139,0.5913951395139514,0.45728511530398325,0.5913951395139514,1.115775681341719,0.5913951395139514,1.0426100628930817,0.5913951395139514,1.499895178197065,0.5913951395139514,1.5913522012578616
259,0.5936873687368738,0.6950733752620545,0.5936873687368738,0.45728511530398325,0.5936873687368738,1.115775681341719,0.5936873687368738,1.0426100628930817,0.5936873687368738,1.499895178197065,0.5936873687368738,1.5913522012578616
260,0.595979597959796,0.6950733752620545,0.595979597959796,0.45728511530398325,0.595979597959796,1.115775681341719,0.595979597959796,1.0426100628930817,0.595979597959796,1.499895178197065,0.595979597959796,1.5913522012578616
261,0.5982718271827183,0.6950733752620545,0.5982718271827183,0.45728511530398325,0.5982718271827183,1.115775681341719,0.5982718271827183,1.0426100628930817,0.5982718271827183,1.499895178197065,0.5982718271827183,1.5913522012578616
262,0.6005640564056406,0.6950733752620545,0.6005640564056406,0.45728511530398325,0.6005640564056406,1.115775681341719,0.6005640564056406,1.0426100628930817,0.6005640564056406,1.499895178197065,0.6005640564056406,1.5913522012578616
263,0.6028562856285629,0.6950733752620545,0.6028562856285629,0.45728511530398325,0.6028562856285629,1.115775681341719,0.6028562856285629,1.0426100628930817,0.6028562856285629,1.4816037735849057,0.6028562856285629,1.5913522012578616
264,0.6051485148514852,0.6950733752620545,0.6051485148514852,0.45728511530398325,0.6051485148514852,1.115775681341719,0.6051485148514852,1.0426100628930817,0.6051485148514852,1.4816037735849057,0.6051485148514852,1.5913522012578616
265,0.6074407440744075,0.6950733752620545,0.6074407440744075,0.45728511530398325,0.6074407440744075,1.115775681341719,0.6074407440744075,1.0426100628930817,0.6074407440744075,1.4633123689727463,0.6074407440744075,1.5913522012578616
266,0.6097329732973298,0.6950733752620545,0.6097329732973298,0.45728511530398325,0.6097329732973298,1.115775681341719,0.6097329732973298,1.0426100628930817,0.6097329732973298,1.4633123689727463,0.6097329732973298,1.5730607966457024
267,0.612025202520252,0.6950733752620545,0.612025202520252,0.45728511530398325,0.612025202520252,1.115775681341719,0.612025202520252,1.0426100628930817,0.612025202520252,1.4450209643605871,0.612025202520252,1.554769392033543
268,0.6143174317431743,0.6950733752620545,0.6143174317431743,0.45728511530398325,0.6143174317431743,1.115775681341719,0.6143174317431743,1.0426100628930817,0.6143174317431743,1.4267295597484277,0.6143174317431743,1.499895178197065
269,0.6166096609660967,0.6950733752620545,0.6166096609660967,0.45728511530398325,0.6166096609660967,1.115775681341719,0.6166096609660967,1.0426100628930817,0.6166096609660967,1.4084381551362684,0.6166096609660967,1.4633123689727463
270,0.618901890189019,0.6950733752620545,0.618901890189019,0.45728511530398325,0.618901890189019,1.115775681341719,0.618901890189019,1.0426100628930817,0.618901890189019,1.390146750524109,0.618901890189019,1.4450209643605871
271,0.6211941194119412,0.6950733752620545,0.6211941194119412,0.45728511530398325,0.6211941194119412,1.115775681341719,0.6211941194119412,1.0426100628930817,0.6211941194119412,1.3718553459119498,0.6211941194119412,1.4084381551362684
272,0.6234863486348635,0.6950733752620545,0.6234863486348635,0.45728511530398325,0.6234863486348635,1.115775681341719,0.6234863486348635,1.0426100628930817,0.6234863486348635,1.3535639412997904,0.6234863486348635,1.4084381551362684
273,0.6257785778577858,0.6950733752620545,0.6257785778577858,0.45728511530398325,0.6257785778577858,1.115775681341719,0.6257785778577858,1.0426100628930817,0.6257785778577858,1.3535639412997904,0.6257785778577858,1.390146750524109
274,0.6280708070807081,0.6950733752620545,0.6280708070807081,0.45728511530398325,0.6280708070807081,1.115775681341719,0.6280708070807081,1.0243186582809225,0.6280708070807081,1.335272536687631,0.6280708070807081,1.3718553459119498
275,0.6303630363036304,0.6950733752620545,0.6303630363036304,0.45728511530398325,0.6303630363036304,1.115775681341719,0.6303630363036304,1.0243186582809225,0.6303630363036304,1.3169811320754716,0.6303630363036304,1.3535639412997904
276,0.6326552655265527,0.6950733752620545,0.6326552655265527,0.45728511530398325,0.6326552655265527,1.115775681341719,0.6326552655265527,1.006027253668763,0.6326552655265527,1.280398322851153,0.6326552655265527,1.335272536687631
277,0.634947494749475,0.6950733752620545,0.634947494749475,0.45728511530398325,0.634947494749475,1.115775681341719,0.634947494749475,1.006027253668763,0.634947494749475,1.2621069182389937,0.634947494749475,1.3169811320754716
278,0.6372397239723973,0.6950733752620545,0.6372397239723973,0.45728511530398325,0.6372397239723973,1.115775681341719,0.6372397239723973,0.9877358490566038,0.6372397239723973,1.2438155136268345,0.6372397239723973,1.2986897274633125
279,0.6395319531953195,0.6950733752620545,0.6395319531953195,0.45728511530398325,0.6395319531953195,1.0974842767295598,0.6395319531953195,0.9511530398322852,0.6395319531953195,1.2072327044025157,0.6395319531953195,1.280398322851153
280,0.6418241824182419,0.6950733752620545,0.6418241824182419,0.45728511530398325,0.6418241824182419,1.0791928721174004,0.6418241824182419,0.9328616352201258,0.6418241824182419,1.1889412997903563,0.6418241824182419,1.2621069182389937
281,0.6441164116411642,0.6950733752620545,0.6441164116411642,0.45728511530398325,0.6441164116411642,1.060901467505241,0.6441164116411642,0.8962788259958071,0.6441164116411642,1.1706498951781972,0.6441164116411642,1.2621069182389937
282,0.6464086408640864,0.6950733752620545,0.6464086408640864,0.45728511530398325,0.6464086408640864,1.0426100628930817,0.6464086408640864,0.8779874213836478,0.6464086408640864,1.1523584905660378,0.6464086408640864,1.2438155136268345
283,0.6487008700870087,0.6950733752620545,0.6487008700870087,0.45728511530398325,0.6487008700870087,1.0243186582809225,0.6487008700870087,0.8779874213836478,0.6487008700870087,1.1523584905660378,0.6487008700870087,1.2438155136268345
284,0.650993099309931,0.6950733752620545,0.650993099309931,0.45728511530398325,0.650993099309931,1.006027253668763,0.650993099309931,0.8596960167714884,0.650993099309931,1.1340670859538784,0.650993099309931,1.2255241090146751
285,0.6532853285328534,0.6950733752620545,0.6532853285328534,0.45728511530398325,0.6532853285328534,0.9877358490566038,0.6532853285328534,0.8596960167714884,0.6532853285328534,1.1340670859538784,0.6532853285328534,1.2255241090146751
286,0.6555775577557756,0.6950733752620545,0.6555775577557756,0.45728511530398325,0.6555775577557756,0.9877358490566038,0.6555775577557756,0.8596960167714884,0.6555775577557756,1.115775681341719,0.6555775577557756,1.2255241090146751
287,0.6578697869786979,0.6950733752620545,0.6578697869786979,0.45728511530398325,0.6578697869786979,0.9877358490566038,0.6578697869786979,0.8779874213836478,0.6578697869786979,1.115775681341719,0.6578697869786979,1.2072327044025157
288,0.6601620162016202,0.6950733752620545,0.6601620162016202,0.45728511530398325,0.6601620162016202,0.9877358490566038,0.6601620162016202,0.8779874213836478,0.6601620162016202,1.0974842767295598,0.6601620162016202,1.2072327044025157
289,0.6624542454245425,0.6950733752620545,0.6624542454245425,0.45728511530398325,0.6624542454245425,0.9877358490566038,0.6624542454245425,0.8779874213836478,0.6624542454245425,1.0974842767295598,0.6624542454245425,1.1889412997903563
290,0.6647464746474648,0.6950733752620545,0.6647464746474648,0.45728511530398325,0.6647464746474648,0.9877358490566038,0.6647464746474648,0.8779874213836478,0.6647464746474648,1.0974842767295598,0.6647464746474648,1.1889412997903563
291,0.6670387038703871,0.6950733752620545,0.6670387038703871,0.45728511530398325,0.6670387038703871,1.006027253668763,0.6670387038703871,0.8962788259958071,0.6670387038703871,1.0791928721174004,0.6670387038703871,1.1706498951781972
292,0.6693309330933094,0.6950733752620545,0.6693309330933094,0.45728511530398325,0.6693309330933094,1.006027253668763,0.6693309330933094,0.8962788259958071,0.6693309330933094,1.0791928721174004,0.6693309330933094,1.1523584905660378
293,0.6716231623162316,0.6950733752620545,0.6716231623162316,0.45728511530398325,0.6716231623162316,1.0243186582809225,0.6716231623162316,0.8962788259958071,0.6716231623162316,1.0791928721174004,0.6716231623162316,1.1340670859538784
294,0.6739153915391539,0.6950733752620545,0.6739153915391539,0.45728511530398325,0.6739153915391539,1.0426100628930817,0.6739153915391539,0.8962788259958071,0.6739153915391539,1.0791928721174004,0.6739153915391539,1.115775681341719
295,0.6762076207620763,0.6950733752620545,0.6762076207620763,0.45728511530398325,0.6762076207620763,1.0791928721174004,0.6762076207620763,0.8962788259958071,0.6762076207620763,1.060901467505241,0.6762076207620763,1.0974842767295598
296,0.6784998499849986,0.6950733752620545,0.6784998499849986,0.45728511530398325,0.6784998499849986,1.0974842767295598,0.6784998499849986,0.8962788259958071,0.6784998499849986,1.060901467505241,0.6784998499849986,1.0791928721174004
297,0.6807920792079208,0.6950733752620545,0.6807920792079208,0.45728511530398325,0.6807920792079208,1.115775681341719,0.6807920792079208,0.8962788259958071,0.6807920792079208,1.060901467505241,0.6807920792079208,1.060901467505241
298,0.6830843084308431,0.6950733752620545,0.6830843084308431,0.45728511530398325,0.6830843084308431,1.115775681341719,0.6830843084308431,0.8962788259958071,0.6830843084308431,1.060901467505241,0.6830843084308431,1.060901467505241
299,0.6853765376537654,0.6950733752620545,0.6853765376537654,0.45728511530398325,0.6853765376537654,1.1340670859538784,0.6853765376537654,0.8962788259958071,0.6853765376537654,1.060901467505241,0.6853765376537654,1.0426100628930817
300,0.6876687668766878,0.6950733752620545,0.6876687668766878,0.45728511530398325,0.6876687668766878,1.1340670859538784,0.6876687668766878,0.8962788259958071,0.6876687668766878,1.060901467505241,0.6876687668766878,1.0426100628930817
301,0.68996099609961,0.6950733752620545,0.68996099609961,0.45728511530398325,0.68996099609961,1.1340670859538784,0.68996099609961,0.8962788259958071,0.68996099609961,1.0426100628930817,0.68996099609961,1.0243186582809225
302,0.6922532253225323,0.6950733752620545,0.6922532253225323,0.45728511530398325,0.6922532253225323,1.1340670859538784,0.6922532253225323,0.8962788259958071,0.6922532253225323,1.0426100628930817,0.6922532253225323,1.0243186582809225
303,0.6945454545454546,0.6950733752620545,0.6945454545454546,0.45728511530398325,0.6945454545454546,1.1340670859538784,0.6945454545454546,0.8962788259958071,0.6945454545454546,1.0426100628930817,0.6945454545454546,1.0243186582809225
304,0.6968376837683768,0.6950733752620545,0.6968376837683768,0.45728511530398325,0.6968376837683768,1.1340670859538784,0.6968376837683768,0.8962788259958071,0.6968376837683768,1.0243186582809225,0.6968376837683768,1.006027253668763
305,0.6991299129912992,0.6950733752620545,0.6991299129912992,0.45728511530398325,0.6991299129912992,1.1340670859538784,0.6991299129912992,0.8962788259958071,0.6991299129912992,1.0243186582809225,0.6991299129912992,1.006027253668763
306,0.7014221422142215,0.6950733752620545,0.7014221422142215,0.45728511530398325,0.7014221422142215,1.1340670859538784,0.7014221422142215,0.8962788259958071,0.7014221422142215,1.006027253668763,0.7014221422142215,1.006027253668763
307,0.7037143714371438,0.6950733752620545,0.7037143714371438,0.45728511530398325,0.7037143714371438,1.1340670859538784,0.7037143714371438,0.8962788259958071,0.7037143714371438,1.006027253668763,0.7037143714371438,1.006027253668763
308,0.706006600660066,0.6950733752620545,0.706006600660066,0.4389937106918239,0.706006600660066,1.1340670859538784,0.706006600660066,0.8962788259958071,0.706006600660066,0.9877358490566038,0.706006600660066,1.006027253668763
309,0.7082988298829883,0.6950733752620545,0.7082988298829883,0.4389937106918239,0.7082988298829883,1.1340670859538784,0.7082988298829883,0.8962788259958071,0.7082988298829883,0.9877358490566038,0.7082988298829883,1.006027253668763
310,0.7105910591059107,0.6950733752620545,0.7105910591059107,0.4389937106918239,0.7105910591059107,1.1340670859538784,0.7105910591059107,0.8962788259958071,0.7105910591059107,1.006027253668763,0.7105910591059107,1.006027253668763
311,0.712883288328833,0.6767819706498952,0.712883288328833,0.4389937106918239,0.712883288328833,1.1340670859538784,0.712883288328833,0.8962788259958071,0.712883288328833,1.0243186582809225,0.712883288328833,1.006027253668763
312,0.7151755175517552,0.6767819706498952,0.7151755175517552,0.45728511530398325,0.7151755175517552,1.1340670859538784,0.7151755175517552,0.8962788259958071,0.7151755175517552,1.0426100628930817,0.7151755175517552,1.0243186582809225
313,0.7174677467746775,0.6767819706498952,0.7174677467746775,0.45728511530398325,0.7174677467746775,1.1340670859538784,0.7174677467746775,0.8962788259958071,0.7174677467746775,1.060901467505241,0.7174677467746775,1.0243186582809225
314,0.7197599759975998,0.6767819706498952,0.7197599759975998,0.45728511530398325,0.7197599759975998,1.1340670859538784,0.7197599759975998,0.8962788259958071,0.7197599759975998,1.060901467505241,0.7197599759975998,1.0243186582809225
315,0.722052205220522,0.6767819706498952,0.722052205220522,0.45728511530398325,0.722052205220522,1.1340670859538784,0.722052205220522,0.8962788259958071,0.722052205220522,1.0791928721174004,0.722052205220522,1.0243186582809225
316,0.7243444344434444,0.6767819706498952,0.7243444344434444,0.45728511530398325,0.7243444344434444,1.1340670859538784,0.7243444344434444,0.8962788259958071,0.7243444344434444,1.0791928721174004,0.7243444344434444,1.0243186582809225
317,0.7266366636663667,0.6767819706498952,0.7266366636663667,0.45728511530398325,0.7266366636663667,1.1340670859538784,0.7266366636663667,0.8962788259958071,0.7266366636663667,1.0791928721174004,0.7266366636663667,1.0243186582809225
318,0.728928892889289,0.6767819706498952,0.728928892889289,0.45728511530398325,0.728928892889289,1.1340670859538784,0.728928892889289,0.8962788259958071,0.728928892889289,1.0791928721174004,0.728928892889289,1.0243186582809225
319,0.7312211221122112,0.6767819706498952,0.7312211221122112,0.45728511530398325,0.7312211221122112,1.1340670859538784,0.7312211221122112,0.8962788259958071,0.7312211221122112,1.0791928721174004,0.7312211221122112,1.0243186582809225
320,0.7335133513351335,0.6767819706498952,0.7335133513351335,0.45728511530398325,0.7335133513351335,1.1340670859538784,0.7335133513351335,0.8962788259958071,0.7335133513351335,1.0791928721174004,0.7335133513351335,1.0243186582809225
321,0.7358055805580559,0.6767819706498952,0.7358055805580559,0.45728511530398325,0.7358055805580559,1.1340670859538784,0.7358055805580559,0.8962788259958071,0.7358055805580559,1.0791928721174004,0.7358055805580559,1.0243186582809225
322,0.7380978097809782,0.6767819706498952,0.7380978097809782,0.45728511530398325,0.7380978097809782,1.1340670859538784,0.7380978097809782,0.8962788259958071,0.7380978097809782,1.0791928721174004,0.7380978097809782,1.0243186582809225
323,0.7403900390039004,0.6767819706498952,0.7403900390039004,0.45728511530398325,0.7403900390039004,1.1340670859538784,0.7403900390039004,0.8962788259958071,0.7403900390039004,1.0791928721174004,0.7403900390039004,1.0243186582809225
324,0.7426822682268227,0.6767819706498952,0.7426822682268227,0.45728511530398325,0.7426822682268227,1.1340670859538784,0.7426822682268227,0.8962788259958071,0.7426822682268227,1.0791928721174004,0.7426822682268227,1.0243186582809225
325,0.744974497449745,0.6767819706498952,0.744974497449745,0.45728511530398325,0.744974497449745,1.115775681341719,0.744974497449745,0.8962788259958071,0.744974497449745,1.0791928721174004,0.744974497449745,1.0243186582809225
326,0.7472667266726674,0.6767819706498952,0.7472667266726674,0.45728511530398325,0.7472667266726674,1.115775681341719,0.7472667266726674,0.8962788259958071,0.7472667266726674,1.0791928721174004,0.7472667266726674,1.0243186582809225
327,0.7495589558955896,0.6767819706498952,0.7495589558955896,0.45728511530398325,0.7495589558955896,1.0974842767295598,0.7495589558955896,0.8962788259958071,0.7495589558955896,1.0791928721174004,0.7495589558955896,1.0426100628930817
328,0.7518511851185119,0.6950733752620545,0.7518511851185119,0.45728511530398325,0.7518511851185119,1.0974842767295598,0.7518511851185119,0.8779874213836478,0.7518511851185119,1.0791928721174004,0.7518511851185119,1.060901467505241
329,0.7541434143414342,0.6950733752620545,0.7541434143414342,0.45728511530398325,0.7541434143414342,1.0791928721174004,0.7541434143414342,0.8779874213836478,0.7541434143414342,1.0791928721174004,0.7541434143414342,1.0791928721174004
330,0.7564356435643564,0.6950733752620545,0.7564356435643564,0.45728511530398325,0.7564356435643564,1.0791928721174004,0.7564356435643564,0.8779874213836478,0.7564356435643564,1.0791928721174004,0.7564356435643564,1.0974842767295598
331,0.7587278727872788,0.6950733752620545,0.7587278727872788,0.45728511530398325,0.7587278727872788,1.0791928721174004,0.7587278727872788,0.8779874213836478,0.7587278727872788,1.0791928721174004,0.7587278727872788,1.1340670859538784
332,0.7610201020102011,0.6950733752620545,0.7610201020102011,0.45728511530398325,0.7610201020102011,1.0791928721174004,0.7610201020102011,0.8779874213836478,0.7610201020102011,1.0791928721174004,0.7610201020102011,1.1523584905660378
333,0.7633123312331234,0.6950733752620545,0.7633123312331234,0.45728511530398325,0.7633123312331234,1.060901467505241,0.7633123312331234,0.8779874213836478,0.7633123312331234,1.0791928721174004,0.7633123312331234,1.1706498951781972
334,0.7656045604560456,0.6950733752620545,0.7656045604560456,0.45728511530398325,0.7656045604560456,1.060901467505241,0.7656045604560456,0.8779874213836478,0.7656045604560456,1.0791928721174004,0.7656045604560456,1.1889412997903563
335,0.7678967896789679,0.6950733752620545,0.7678967896789679,0.4389937106918239,0.7678967896789679,1.060901467505241,0.7678967896789679,0.8779874213836478,0.7678967896789679,1.060901467505241,0.7678967896789679,1.1889412997903563
336,0.7701890189018903,0.6950733752620545,0.7701890189018903,0.4389937106918239,0.7701890189018903,1.060901467505241,0.7701890189018903,0.8779874213836478,0.7701890189018903,1.060901467505241,0.7701890189018903,1.2072327044025157
337,0.7724812481248126,0.6950733752620545,0.7724812481248126,0.4389937106918239,0.7724812481248126,1.060901467505241,0.7724812481248126,0.8779874213836478,0.7724812481248126,1.060901467505241,0.7724812481248126,1.2072327044025157
338,0.7747734773477348,0.6950733752620545,0.7747734773477348,0.4389937106918239,0.7747734773477348,1.060901467505241,0.7747734773477348,0.8779874213836478,0.7747734773477348,1.060901467505241,0.7747734773477348,1.2072327044025157
339,0.7770657065706571,0.6950733752620545,0.7770657065706571,0.4389937106918239,0.7770657065706571,1.060901467505241,0.7770657065706571,0.8779874213836478,0.7770657065706571,1.060901467505241,0.7770657065706571,1.2072327044025157
340,0.7793579357935794,0.6950733752620545,0.7793579357935794,0.4389937106918239,0.7793579357935794,1.060901467505241,0.7793579357935794,0.8779874213836478,0.7793579357935794,1.0426100628930817,0.7793579357935794,1.2072327044025157
341,0.7816501650165018,0.6950733752620545,0.7816501650165018,0.4389937106918239,0.7816501650165018,1.060901467505241,0.7816501650165018,0.8779874213836478,0.7816501650165018,1.0426100628930817,0.7816501650165018,1.2072327044025157
342,0.783942394239424,0.6950733752620545,0.783942394239424,0.4389937106918239,0.783942394239424,1.060901467505241,0.783942394239424,0.8779874213836478,0.783942394239424,1.0426100628930817,0.783942394239424,1.2072327044025157
343,0.7862346234623463,0.7133647798742139,0.7862346234623463,0.4389937106918239,0.7862346234623463,1.060901467505241,0.7862346234623463,0.8779874213836478,0.7862346234623463,1.0426100628930817,0.7862346234623463,1.2072327044025157
344,0.7885268526852686,0.7133647798742139,0.7885268526852686,0.4389937106918239,0.7885268526852686,1.060901467505241,0.7885268526852686,0.8779874213836478,0.7885268526852686,1.0243186582809225,0.7885268526852686,1.2072327044025157
345,0.7908190819081908,0.7133647798742139,0.7908190819081908,0.4389937106918239,0.7908190819081908,1.060901467505241,0.7908190819081908,0.8779874213836478,0.7908190819081908,1.0243186582809225,0.7908190819081908,1.2072327044025157
346,0.7931113111311132,0.7133647798742139,0.7931113111311132,0.4389937106918239,0.7931113111311132,1.0426100628930817,0.7931113111311132,0.8779874213836478,0.7931113111311132,1.0243186582809225,0.7931113111311132,1.2072327044025157
347,0.7954035403540355,0.7133647798742139,0.7954035403540355,0.4389937106918239,0.7954035403540355,1.0426100628930817,0.7954035403540355,0.8779874213836478,0.7954035403540355,1.0243186582809225,0.7954035403540355,1.2072327044025157
348,0.7976957695769578,0.7133647798742139,0.7976957695769578,0.4389937106918239,0.7976957695769578,1.0426100628930817,0.7976957695769578,0.8779874213836478,0.7976957695769578,1.0243186582809225,0.7976957695769578,1.2072327044025157
349,0.79998799879988,0.7133647798742139,0.79998799879988,0.4389937106918239,0.79998799879988,1.0243186582809225,0.79998799879988,0.8779874213836478,0.79998799879988,1.0243186582809225,0.79998799879988,1.2072327044025157
350,0.8022802280228023,0.7133647798742139,0.8022802280228023,0.4389937106918239,0.8022802280228023,1.0243186582809225,0.8022802280228023,0.8779874213836478,0.8022802280228023,1.0243186582809225,0.8022802280228023,1.2072327044025157
351,0.8045724572457247,0.7133647798742139,0.8045724572457247,0.4389937106918239,0.8045724572457247,1.006027253668763,0.8045724572457247,0.8779874213836478,0.8045724572457247,1.0243186582809225,0.8045724572457247,1.2072327044025157
352,0.806864686468647,0.7133647798742139,0.806864686468647,0.4389937106918239,0.806864686468647,1.006027253668763,0.806864686468647,0.8779874213836478,0.806864686468647,1.0243186582809225,0.806864686468647,1.2072327044025157
353,0.8091569156915692,0.7133647798742139,0.8091569156915692,0.4389937106918239,0.8091569156915692,1.006027253668763,0.8091569156915692,0.8779874213836478,0.8091569156915692,1.0243186582809225,0.8091569156915692,1.2072327044025157
354,0.8114491449144915,0.7133647798742139,0.8114491449144915,0.4389937106918239,0.8114491449144915,1.006027253668763,0.8114491449144915,0.8779874213836478,0.8114491449144915,1.0243186582809225,0.8114491449144915,1.2072327044025157
355,0.8137413741374138,0.7133647798742139,0.8137413741374138,0.4389937106918239,0.8137413741374138,1.006027253668763,0.8137413741374138,0.8779874213836478,0.8137413741374138,1.0243186582809225,0.8137413741374138,1.1889412997903563
356,0.816033603360336,0.7133647798742139,0.816033603360336,0.4389937106918239,0.816033603360336,1.006027253668763,0.816033603360336,0.8779874213836478,0.816033603360336,1.0243186582809225,0.816033603360336,1.1889412997903563
357,0.8183258325832584,0.7133647798742139,0.8183258325832584,0.4389937106918239,0.8183258325832584,1.006027253668763,0.8183258325832584,0.8779874213836478,0.8183258325832584,1.0243186582809225,0.8183258325832584,1.1706498951781972
358,0.8206180618061807,0.7133647798742139,0.8206180618061807,0.4389937106918239,0.8206180618061807,1.006027253668763,0.8206180618061807,0.8779874213836478,0.8206180618061807,1.0243186582809225,0.8206180618061807,1.1523584905660378
359,0.822910291029103,0.7133647798742139,0.822910291029103,0.4389937106918239,0.822910291029103,1.006027253668763,0.822910291029103,0.8779874213836478,0.822910291029103,1.006027253668763,0.822910291029103,1.1340670859538784
360,0.8252025202520252,0.7133647798742139,0.8252025202520252,0.4389937106918239,0.8252025202520252,1.006027253668763,0.8252025202520252,0.8779874213836478,0.8252025202520252,1.006027253668763,0.8252025202520252,1.115775681341719
361,0.8274947494749475,0.7133647798742139,0.8274947494749475,0.4389937106918239,0.8274947494749475,1.006027253668763,0.8274947494749475,0.8779874213836478,0.8274947494749475,0.9877358490566038,0.8274947494749475,1.0974842767295598
362,0.8297869786978699,0.7133647798742139,0.8297869786978699,0.4389937106918239,0.8297869786978699,1.006027253668763,0.8297869786978699,0.8779874213836478,0.8297869786978699,0.9877358490566038,0.8297869786978699,1.0974842767295598
363,0.8320792079207922,0.6950733752620545,0.8320792079207922,0.4389937106918239,0.8320792079207922,1.006027253668763,0.8320792079207922,0.8596960167714884,0.8320792079207922,0.9694444444444444,0.8320792079207922,1.0791928721174004
364,0.8343714371437144,0.6950733752620545,0.8343714371437144,0.4389937106918239,0.8343714371437144,1.006027253668763,0.8343714371437144,0.8596960167714884,0.8343714371437144,0.9694444444444444,0.8343714371437144,1.060901467505241
365,0.8366636663666367,0.6950733752620545,0.8366636663666367,0.4389937106918239,0.8366636663666367,1.006027253668763,0.8366636663666367,0.8596960167714884,0.8366636663666367,0.9511530398322852,0.8366636663666367,1.060901467505241
366,0.838955895589559,0.6950733752620545,0.838955895589559,0.4389937106918239,0.838955895589559,1.006027253668763,0.838955895589559,0.8414046121593292,0.838955895589559,0.9511530398322852,0.838955895589559,1.0426100628930817
367,0.8412481248124813,0.6950733752620545,0.8412481248124813,0.4389937106918239,0.8412481248124813,1.006027253668763,0.8412481248124813,0.8414046121593292,0.8412481248124813,0.9511530398322852,0.8412481248124813,1.0426100628930817
368,0.8435403540354036,0.6950733752620545,0.8435403540354036,0.4389937106918239,0.8435403540354036,1.006027253668763,0.8435403540354036,0.8414046121593292,0.8435403540354036,0.9694444444444444,0.8435403540354036,1.0426100628930817
369,0.8458325832583259,0.6950733752620545,0.8458325832583259,0.4389937106918239,0.8458325832583259,0.9877358490566038,0.8458325832583259,0.8414046121593292,0.8458325832583259,1.0243186582809225,0.8458325832583259,1.0243186582809225
370,0.8481248124812482,0.6950733752620545,0.8481248124812482,0.4389937106918239,0.8481248124812482,0.9877358490566038,0.8481248124812482,0.8596960167714884,0.8481248124812482,1.0426100628930817,0.8481248124812482,1.0243186582809225
371,0.8504170417041704,0.6950733752620545,0.8504170417041704,0.4389937106918239,0.8504170417041704,0.9877358490566038,0.8504170417041704,0.8596960167714884,0.8504170417041704,1.0426100628930817,0.8504170417041704,1.0243186582809225
372,0.8527092709270928,0.6950733752620545,0.8527092709270928,0.4389937106918239,0.8527092709270928,0.9877358490566038,0.8527092709270928,0.8779874213836478,0.8527092709270928,1.0426100628930817,0.8527092709270928,1.0243186582809225
373,0.8550015001500151,0.6950733752620545,0.8550015001500151,0.4389937106918239,0.8550015001500151,0.9877358490566038,0.8550015001500151,0.8962788259958071,0.8550015001500151,1.0426100628930817,0.8550015001500151,1.0243186582809225
374,0.8572937293729374,0.6950733752620545,0.8572937293729374,0.4389937106918239,0.8572937293729374,1.006027253668763,0.8572937293729374,0.8962788259958071,0.8572937293729374,1.0426100628930817,0.8572937293729374,1.0243186582809225
375,0.8595859585958596,0.6950733752620545,0.8595859585958596,0.4389937106918239,0.8595859585958596,1.006027253668763,0.8595859585958596,0.8962788259958071,0.8595859585958596,1.0426100628930817,0.8595859585958596,1.0243186582809225
376,0.8618781878187819,0.6950733752620545,0.8618781878187819,0.4389937106918239,0.8618781878187819,1.006027253668763,0.8618781878187819,0.8962788259958071,0.8618781878187819,1.0426100628930817,0.8618781878187819,1.0243186582809225
377,0.8641704170417043,0.6950733752620545,0.8641704170417043,0.45728511530398325,0.8641704170417043,1.0243186582809225,0.8641704170417043,0.8962788259958071,0.8641704170417043,1.0426100628930817,0.8641704170417043,1.0243186582809225
378,0.8664626462646265,0.6950733752620545,0.8664626462646265,0.45728511530398325,0.8664626462646265,1.0243186582809225,0.8664626462646265,0.8962788259958071,0.8664626462646265,1.0426100628930817,0.8664626462646265,1.0243186582809225
379,0.8687548754875488,0.6950733752620545,0.8687548754875488,0.45728511530398325,0.8687548754875488,1.0243186582809225,0.8687548754875488,0.8962788259958071,0.8687548754875488,1.0426100628930817,0.8687548754875488,1.0243186582809225
380,0.8710471047104711,0.6950733752620545,0.8710471047104711,0.45728511530398325,0.8710471047104711,1.0426100628930817,0.8710471047104711,0.8962788259958071,0.8710471047104711,1.0426100628930817,0.8710471047104711,1.0243186582809225
381,0.8733393339333934,0.6950733752620545,0.8733393339333934,0.45728511530398325,0.8733393339333934,1.0426100628930817,0.8733393339333934,0.8962788259958071,0.8733393339333934,1.0426100628930817,0.8733393339333934,1.0243186582809225
382,0.8756315631563157,0.6950733752620545,0.8756315631563157,0.45728511530398325,0.8756315631563157,1.060901467505241,0.8756315631563157,0.8962788259958071,0.8756315631563157,1.0426100628930817,0.8756315631563157,1.0243186582809225
383,0.877923792379238,0.6950733752620545,0.877923792379238,0.45728511530398325,0.877923792379238,1.060901467505241,0.877923792379238,0.8962788259958071,0.877923792379238,1.0426100628930817,0.877923792379238,1.0243186582809225
384,0.8802160216021603,0.6950733752620545,0.8802160216021603,0.45728511530398325,0.8802160216021603,1.0791928721174004,0.8802160216021603,0.8962788259958071,0.8802160216021603,1.0426100628930817,0.8802160216021603,1.0243186582809225
385,0.8825082508250826,0.6950733752620545,0.8825082508250826,0.45728511530398325,0.8825082508250826,1.0791928721174004,0.8825082508250826,0.8962788259958071,0.8825082508250826,1.0426100628930817,0.8825082508250826,1.0243186582809225
386,0.8848004800480048,0.6950733752620545,0.8848004800480048,0.45728511530398325,0.8848004800480048,1.0791928721174004,0.8848004800480048,0.8962788259958071,0.8848004800480048,1.0426100628930817,0.8848004800480048,1.0243186582809225
387,0.8870927092709272,0.6950733752620545,0.8870927092709272,0.45728511530398325,0.8870927092709272,1.0791928721174004,0.8870927092709272,0.8962788259958071,0.8870927092709272,1.0426100628930817,0.8870927092709272,1.0243186582809225
388,0.8893849384938495,0.6950733752620545,0.8893849384938495,0.45728511530398325,0.8893849384938495,1.0791928721174004,0.8893849384938495,0.8962788259958071,0.8893849384938495,1.0426100628930817,0.8893849384938495,1.0243186582809225
389,0.8916771677167717,0.6950733752620545,0.8916771677167717,0.45728511530398325,0.8916771677167717,1.0791928721174004,0.8916771677167717,0.8962788259958071,0.8916771677167717,1.0243186582809225,0.8916771677167717,1.0243186582809225
390,0.893969396939694,0.6950733752620545,0.893969396939694,0.45728511530398325,0.893969396939694,1.0791928721174004,0.893969396939694,0.8962788259958071,0.893969396939694,1.006027253668763,0.893969396939694,1.0243186582809225
391,0.8962616261626163,0.6950733752620545,0.8962616261626163,0.45728511530398325,0.8962616261626163,1.0791928721174004,0.8962616261626163,0.8962788259958071,0.8962616261626163,1.006027253668763,0.8962616261626163,1.0243186582809225
392,0.8985538553855387,0.6950733752620545,0.8985538553855387,0.45728511530398325,0.8985538553855387,1.0791928721174004,0.8985538553855387,0.8962788259958071,0.8985538553855387,1.006027253668763,0.8985538553855387,1.0243186582809225
393,0.9008460846084609,0.6950733752620545,0.9008460846084609,0.45728511530398325,0.9008460846084609,1.0791928721174004,0.9008460846084609,0.8962788259958071,0.9008460846084609,1.006027253668763,0.9008460846084609,1.0243186582809225
394,0.9031383138313832,0.6950733752620545,0.9031383138313832,0.45728511530398325,0.9031383138313832,1.0791928721174004,0.9031383138313832,0.8962788259958071,0.9031383138313832,1.006027253668763,0.9031383138313832,1.0243186582809225
395,0.9054305430543055,0.6950733752620545,0.9054305430543055,0.45728511530398325,0.9054305430543055,1.0791928721174004,0.9054305430543055,0.8962788259958071,0.9054305430543055,1.006027253668763,0.9054305430543055,1.0243186582809225
396,0.9077227722772278,0.6950733752620545,0.9077227722772278,0.45728511530398325,0.9077227722772278,1.0791928721174004,0.9077227722772278,0.8962788259958071,0.9077227722772278,1.006027253668763,0.9077227722772278,1.0426100628930817
397,0.91001500150015,0.6950733752620545,0.91001500150015,0.45728511530398325,0.91001500150015,1.0791928721174004,0.91001500150015,0.8962788259958071,0.91001500150015,1.006027253668763,0.91001500150015,1.0426100628930817
398,0.9123072307230724,0.6950733752620545,0.9123072307230724,0.45728511530398325,0.9123072307230724,1.0791928721174004,0.9123072307230724,0.8962788259958071,0.9123072307230724,1.006027253668763,0.9123072307230724,1.0426100628930817
399,0.9145994599459947,0.6950733752620545,0.9145994599459947,0.45728511530398325,0.9145994599459947,1.0791928721174004,0.9145994599459947,0.8962788259958071,0.9145994599459947,1.006027253668763,0.9145994599459947,1.0426100628930817
400,0.916891689168917,0.6950733752620545,0.916891689168917,0.45728511530398325,0.916891689168917,1.0791928721174004,0.916891689168917,0.8962788259958071,0.916891689168917,1.006027253668763,0.916891689168917,1.060901467505241
401,0.9191839183918392,0.6950733752620545,0.9191839183918392,0.45728511530398325,0.9191839183918392,1.0791928721174004,0.9191839183918392,0.8962788259958071,0.9191839183918392,1.006027253668763,0.9191839183918392,1.060901467505241
402,0.9214761476147615,0.6950733752620545,0.9214761476147615,0.45728511530398325,0.9214761476147615,1.0791928721174004,0.9214761476147615,0.8962788259958071,0.9214761476147615,1.006027253668763,0.9214761476147615,1.060901467505241
403,0.9237683768376839,0.6950733752620545,0.9237683768376839,0.45728511530398325,0.9237683768376839,1.0791928721174004,0.9237683768376839,0.8962788259958071,0.9237683768376839,1.006027253668763,0.9237683768376839,1.060901467505241
404,0.9260606060606061,0.6950733752620545,0.9260606060606061,0.45728511530398325,0.9260606060606061,1.0791928721174004,0.9260606060606061,0.9145702306079665,0.9260606060606061,1.006027253668763,0.9260606060606061,1.060901467505241
405,0.9283528352835284,0.6950733752620545,0.9283528352835284,0.45728511530398325,0.9283528352835284,1.0791928721174004,0.9283528352835284,0.9145702306079665,0.9283528352835284,1.006027253668763,0.9283528352835284,1.060901467505241
406,0.9306450645064507,0.6950733752620545,0.9306450645064507,0.45728511530398325,0.9306450645064507,1.060901467505241,0.9306450645064507,0.9145702306079665,0.9306450645064507,1.006027253668763,0.9306450645064507,1.060901467505241
407,0.932937293729373,0.6950733752620545,0.932937293729373,0.45728511530398325,0.932937293729373,1.060901467505241,0.932937293729373,0.9145702306079665,0.932937293729373,1.006027253668763,0.932937293729373,1.060901467505241
408,0.9352295229522953,0.6950733752620545,0.9352295229522953,0.45728511530398325,0.9352295229522953,1.0426100628930817,0.9352295229522953,0.9145702306079665,0.9352295229522953,1.006027253668763,0.9352295229522953,1.060901467505241
409,0.9375217521752176,0.6950733752620545,0.9375217521752176,0.45728511530398325,0.9375217521752176,1.0243186582809225,0.9375217521752176,0.9145702306079665,0.9375217521752176,1.006027253668763,0.9375217521752176,1.060901467505241
410,0.9398139813981399,0.6950733752620545,0.9398139813981399,0.45728511530398325,0.9398139813981399,1.0243186582809225,0.9398139813981399,0.9145702306079665,0.9398139813981399,1.006027253668763,0.9398139813981399,1.060901467505241
411,0.9421062106210621,0.6950733752620545,0.9421062106210621,0.45728511530398325,0.9421062106210621,1.0243186582809225,0.9421062106210621,0.9145702306079665,0.9421062106210621,1.006027253668763,0.9421062106210621,1.060901467505241
412,0.9443984398439844,0.6950733752620545,0.9443984398439844,0.45728511530398325,0.9443984398439844,1.0243186582809225,0.9443984398439844,0.9145702306079665,0.9443984398439844,1.006027253668763,0.9443984398439844,1.060901467505241
413,0.9466906690669068,0.6950733752620545,0.9466906690669068,0.45728511530398325,0.9466906690669068,1.0243186582809225,0.9466906690669068,0.9145702306079665,0.9466906690669068,1.006027253668763,0.9466906690669068,1.060901467505241
414,0.9489828982898291,0.6950733752620545,0.9489828982898291,0.45728511530398325,0.9489828982898291,1.0243186582809225,0.9489828982898291,0.9328616352201258,0.9489828982898291,0.9877358490566038,0.9489828982898291,1.060901467505241
415,0.9512751275127513,0.6950733752620545,0.9512751275127513,0.45728511530398325,0.9512751275127513,1.0243186582809225,0.9512751275127513,0.9328616352201258,0.9512751275127513,0.9877358490566038,0.9512751275127513,1.060901467505241
416,0.9535673567356736,0.6950733752620545,0.9535673567356736,0.45728511530398325,0.9535673567356736,1.0243186582809225,0.9535673567356736,0.9328616352201258,0.9535673567356736,0.9694444444444444,0.9535673567356736,1.060901467505241
417,0.9558595859585959,0.6950733752620545,0.9558595859585959,0.45728511530398325,0.9558595859585959,1.0243186582809225,0.9558595859585959,0.9328616352201258,0.9558595859585959,0.9694444444444444,0.9558595859585959,1.060901467505241
418,0.9581518151815183,0.6950733752620545,0.9581518151815183,0.45728511530398325,0.9581518151815183,1.0243186582809225,0.9581518151815183,0.9328616352201258,0.9581518151815183,0.9511530398322852,0.9581518151815183,1.060901467505241
419,0.9604440444044405,0.6950733752620545,0.9604440444044405,0.45728511530398325,0.9604440444044405,1.0243186582809225,0.9604440444044405,0.9328616352201258,0.9604440444044405,0.9511530398322852,0.9604440444044405,1.060901467505241
420,0.9627362736273628,0.6950733752620545,0.9627362736273628,0.45728511530398325,0.9627362736273628,1.0243186582809225,0.9627362736273628,0.9328616352201258,0.9627362736273628,0.9511530398322852,0.9627362736273628,1.0426100628930817
421,0.9650285028502851,0.6950733752620545,0.9650285028502851,0.45728511530398325,0.9650285028502851,1.0243186582809225,0.9650285028502851,0.9328616352201258,0.9650285028502851,0.9328616352201258,0.9650285028502851,1.0426100628930817
422,0.9673207320732073,0.6950733752620545,0.9673207320732073,0.45728511530398325,0.9673207320732073,1.0243186582809225,0.9673207320732073,0.9328616352201258,0.9673207320732073,0.9328616352201258,0.9673207320732073,1.0426100628930817
423,0.9696129612961297,0.6950733752620545,0.9696129612961297,0.45728511530398325,0.9696129612961297,1.006027253668763,0.9696129612961297,0.9328616352201258,0.9696129612961297,0.9145702306079665,0.9696129612961297,1.0426100628930817
424,0.971905190519052,0.6950733752620545,0.971905190519052,0.45728511530398325,0.971905190519052,1.006027253668763,0.971905190519052,0.9328616352201258,0.971905190519052,0.9145702306079665,0.971905190519052,1.0243186582809225
425,0.9741974197419743,0.6950733752620545,0.9741974197419743,0.45728511530398325,0.9741974197419743,1.006027253668763,0.9741974197419743,0.9328616352201258,0.9741974197419743,0.9145702306079665,0.9741974197419743,1.0243186582809225
426,0.9764896489648965,0.6950733752620545,0.9764896489648965,0.45728511530398325,0.9764896489648965,1.006027253668763,0.9764896489648965,0.9328616352201258,0.9764896489648965,0.9145702306079665,0.9764896489648965,1.0243186582809225
427,0.9787818781878188,0.6950733752620545,0.9787818781878188,0.45728511530398325,0.9787818781878188,1.006027253668763,0.9787818781878188,0.9328616352201258,0.9787818781878188,0.8962788259958071,0.9787818781878188,1.0243186582809225
428,0.9810741074107412,0.6950733752620545,0.9810741074107412,0.45728511530398325,0.9810741074107412,1.006027253668763,0.9810741074107412,0.9328616352201258,0.9810741074107412,0.8962788259958071,0.9810741074107412,1.0243186582809225
429,0.9833663366336635,0.6950733752620545,0.9833663366336635,0.45728511530398325,0.9833663366336635,1.006027253668763,0.9833663366336635,0.9328616352201258,0.9833663366336635,0.8962788259958071,0.9833663366336635,1.0243186582809225
430,0.9856585658565857,0.6950733752620545,0.9856585658565857,0.45728511530398325,0.9856585658565857,1.006027253668763,0.9856585658565857,0.9328616352201258,0.9856585658565857,0.8962788259958071,0.9856585658565857,1.0243186582809225
431,0.987950795079508,0.7133647798742139,0.987950795079508,0.45728511530398325,0.987950795079508,1.006027253668763,0.987950795079508,0.9328616352201258,0.987950795079508,0.9145702306079665,0.987950795079508,1.0243186582809225
432,0.9902430243024303,0.7133647798742139,0.9902430243024303,0.45728511530398325,0.9902430243024303,1.006027253668763,0.9902430243024303,0.9328616352201258,0.9902430243024303,0.9145702306079665,0.9902430243024303,1.0243186582809225
433,0.9925352535253527,0.7133647798742139,0.9925352535253527,0.45728511530398325,0.9925352535253527,1.006027253668763,0.9925352535253527,0.9328616352201258,0.9925352535253527,0.9145702306079665,0.9925352535253527,1.0243186582809225
434,0.9948274827482749,0.7133647798742139,0.9948274827482749,0.45728511530398325,0.9948274827482749,1.006027253668763,0.9948274827482749,0.9328616352201258,0.9948274827482749,0.9145702306079665,0.9948274827482749,1.0243186582809225
435,0.9971197119711972,0.7133647798742139,0.9971197119711972,0.45728511530398325,0.9971197119711972,1.006027253668763,0.9971197119711972,0.9328616352201258,0.9971197119711972,0.9328616352201258,0.9971197119711972,1.0243186582809225
436,0.9994119411941195,0.7316561844863732,0.9994119411941195,0.45728511530398325,0.9994119411941195,1.006027253668763,0.9994119411941195,0.9328616352201258,0.9994119411941195,0.9328616352201258,0.9994119411941195,1.0243186582809225
437,1.0017041704170417,0.7316561844863732,1.0017041704170417,0.45728511530398325,1.0017041704170417,1.006027253668763,1.0017041704170417,0.9328616352201258,1.0017041704170417,0.9328616352201258,1.0017041704170417,1.0243186582809225
438,1.0039963996399641,0.7316561844863732,1.0039963996399641,0.45728511530398325,1.0039963996399641,1.006027253668763,1.0039963996399641,0.9328616352201258,1.0039963996399641,0.9511530398322852,1.0039963996399641,1.0243186582809225
439,1.0062886288628863,0.7316561844863732,1.0062886288628863,0.45728511530398325,1.0062886288628863,1.006027253668763,1.0062886288628863,0.9328616352201258,1.0062886288628863,0.9511530398322852,1.0062886288628863,1.0243186582809225
440,1.0085808580858087,0.7316561844863732,1.0085808580858087,0.45728511530398325,1.0085808580858087,1.006027253668763,1.0085808580858087,0.9328616352201258,1.0085808580858087,0.9511530398322852,1.0085808580858087,1.0243186582809225
441,1.010873087308731,0.7316561844863732,1.010873087308731,0.45728511530398325,1.010873087308731,1.006027253668763,1.010873087308731,0.9328616352201258,1.010873087308731,0.9511530398322852,1.010873087308731,1.0243186582809225
442,1.0131653165316532,0.7316561844863732,1.0131653165316532,0.45728511530398325,1.0131653165316532,1.006027253668763,1.0131653165316532,0.9328616352201258,1.0131653165316532,0.9511530398322852,1.0131653165316532,1.0243186582809225
443,1.0154575457545756,0.7316561844863732,1.0154575457545756,0.45728511530398325,1.0154575457545756,1.006027253668763,1.0154575457545756,0.9328616352201258,1.0154575457545756,0.9511530398322852,1.0154575457545756,1.0243186582809225
444,1.0177497749774977,0.7316561844863732,1.0177497749774977,0.45728511530398325,1.0177497749774977,1.006027253668763,1.0177497749774977,0.9328616352201258,1.0177497749774977,0.9511530398322852,1.0177497749774977,1.0243186582809225
445,1.0200420042004201,0.7316561844863732,1.0200420042004201,0.45728511530398325,1.0200420042004201,1.006027253668763,1.0200420042004201,0.9328616352201258,1.0200420042004201,0.9511530398322852,1.0200420042004201,1.0243186582809225
446,1.0223342334233425,0.7316561844863732,1.0223342334233425,0.45728511530398325,1.0223342334233425,1.006027253668763,1.0223342334233425,0.9328616352201258,1.0223342334233425,0.9511530398322852,1.0223342334233425,1.0243186582809225
447,1.0246264626462647,0.7316561844863732,1.0246264626462647,0.45728511530398325,1.0246264626462647,1.006027253668763,1.0246264626462647,0.9328616352201258,1.0246264626462647,0.9511530398322852,1.0246264626462647,1.0243186582809225
448,1.026918691869187,0.7316561844863732,1.026918691869187,0.45728511530398325,1.026918691869187,1.006027253668763,1.026918691869187,0.9328616352201258,1.026918691869187,0.9511530398322852,1.026918691869187,1.006027253668763
449,1.0292109210921092,0.7316561844863732,1.0292109210921092,0.45728511530398325,1.0292109210921092,1.006027253668763,1.0292109210921092,0.9328616352201258,1.0292109210921092,0.9511530398322852,1.0292109210921092,1.006027253668763
450,1.0315031503150316,0.7316561844863732,1.0315031503150316,0.45728511530398325,1.0315031503150316,1.006027253668763,1.0315031503150316,0.9328616352201258,1.0315031503150316,0.9511530398322852,1.0315031503150316,1.006027253668763
451,1.033795379537954,0.7316561844863732,1.033795379537954,0.45728511530398325,1.033795379537954,1.006027253668763,1.033795379537954,0.9328616352201258,1.033795379537954,0.9511530398322852,1.033795379537954,0.9877358490566038
452,1.0360876087608761,0.7316561844863732,1.0360876087608761,0.45728511530398325,1.0360876087608761,0.9877358490566038,1.0360876087608761,0.9328616352201258,1.0360876087608761,0.9511530398322852,1.0360876087608761,0.9877358490566038
453,1.0383798379837985,0.7316561844863732,1.0383798379837985,0.45728511530398325,1.0383798379837985,0.9694444444444444,1.0383798379837985,0.9511530398322852,1.0383798379837985,0.9511530398322852,1.0383798379837985,0.9877358490566038
454,1.0406720672067207,0.7316561844863732,1.0406720672067207,0.4755765199161426,1.0406720672067207,0.9694444444444444,1.0406720672067207,0.9511530398322852,1.0406720672067207,0.9511530398322852,1.0406720672067207,0.9877358490566038
455,1.042964296429643,0.7316561844863732,1.042964296429643,0.4755765199161426,1.042964296429643,0.9511530398322852,1.042964296429643,0.9511530398322852,1.042964296429643,0.9511530398322852,1.042964296429643,0.9877358490566038
456,1.0452565256525654,0.7316561844863732,1.0452565256525654,0.4938679245283019,1.0452565256525654,0.9511530398322852,1.0452565256525654,0.9511530398322852,1.0452565256525654,0.9511530398322852,1.0452565256525654,0.9877358490566038
457,1.0475487548754876,0.7316561844863732,1.0475487548754876,0.5121593291404613,1.0475487548754876,0.9511530398322852,1.0475487548754876,0.9511530398322852,1.0475487548754876,0.9328616352201258,1.0475487548754876,0.9877358490566038
458,1.04984098409841,0.7133647798742139,1.04984098409841,1.0791928721174004,1.04984098409841,0.9511530398322852,1.04984098409841,0.9511530398322852,1.04984098409841,0.9328616352201258,1.04984098409841,1.006027253668763
459,1.0521332133213321,0.7133647798742139,1.0521332133213321,1.0791928721174004,1.0521332133213321,0.9511530398322852,1.0521332133213321,0.9511530398322852,1.0521332133213321,0.9328616352201258,1.0521332133213321,1.006027253668763
460,1.0544254425442545,0.7133647798742139,1.0544254425442545,1.0791928721174004,1.0544254425442545,0.9511530398322852,1.0544254425442545,0.9694444444444444,1.0544254425442545,0.9145702306079665,1.0544254425442545,1.0243186582809225
461,1.0567176717671767,0.7133647798742139,1.0567176717671767,1.0791928721174004,1.0567176717671767,0.9694444444444444,1.0567176717671767,0.9694444444444444,1.0567176717671767,0.9145702306079665,1.0567176717671767,1.0243186582809225
462,1.059009900990099,0.7133647798742139,1.059009900990099,1.0791928721174004,1.059009900990099,0.9877358490566038,1.059009900990099,0.9694444444444444,1.059009900990099,0.9145702306079665,1.059009900990099,1.0426100628930817
463,1.0613021302130214,0.7133647798742139,1.0613021302130214,1.0791928721174004,1.0613021302130214,1.006027253668763,1.0613021302130214,0.9694444444444444,1.0613021302130214,0.9145702306079665,1.0613021302130214,1.0426100628930817
464,1.0635943594359436,0.7133647798742139,1.0635943594359436,1.0791928721174004,1.0635943594359436,1.0243186582809225,1.0635943594359436,0.9877358490566038,1.0635943594359436,0.9145702306079665,1.0635943594359436,1.060901467505241
465,1.065886588658866,0.7133647798742139,1.065886588658866,1.0791928721174004,1.065886588658866,1.0426100628930817,1.065886588658866,1.006027253668763,1.065886588658866,0.9145702306079665,1.065886588658866,1.060901467505241
466,1.0681788178817881,0.7133647798742139,1.0681788178817881,1.0791928721174004,1.0681788178817881,1.0791928721174004,1.0681788178817881,1.0243186582809225,1.0681788178817881,0.9145702306079665,1.0681788178817881,1.060901467505241
467,1.0704710471047105,0.7133647798742139,1.0704710471047105,1.060901467505241,1.0704710471047105,1.0974842767295598,1.0704710471047105,1.0243186582809225,1.0704710471047105,0.9145702306079665,1.0704710471047105,1.060901467505241
468,1.072763276327633,0.7133647798742139,1.072763276327633,1.060901467505241,1.072763276327633,1.115775681341719,1.072763276327633,1.0426100628930817,1.072763276327633,0.9145702306079665,1.072763276327633,1.0791928721174004
469,1.075055505550555,0.7133647798742139,1.075055505550555,1.060901467505241,1.075055505550555,1.1340670859538784,1.075055505550555,1.060901467505241,1.075055505550555,0.9145702306079665,1.075055505550555,1.0791928721174004
470,1.0773477347734775,0.7133647798742139,1.0773477347734775,1.060901467505241,1.0773477347734775,1.1340670859538784,1.0773477347734775,1.0791928721174004,1.0773477347734775,0.9145702306079665,1.0773477347734775,1.0791928721174004
471,1.0796399639963996,0.7133647798742139,1.0796399639963996,1.060901467505241,1.0796399639963996,1.1523584905660378,1.0796399639963996,1.0791928721174004,1.0796399639963996,0.9145702306079665,1.0796399639963996,1.0791928721174004
472,1.081932193219322,0.7133647798742139,1.081932193219322,1.0426100628930817,1.081932193219322,1.1706498951781972,1.081932193219322,1.0791928721174004,1.081932193219322,0.9145702306079665,1.081932193219322,1.0791928721174004
473,1.0842244224422444,0.7133647798742139,1.0842244224422444,1.0426100628930817,1.0842244224422444,1.1706498951781972,1.0842244224422444,1.0791928721174004,1.0842244224422444,0.9145702306079665,1.0842244224422444,1.0791928721174004
474,1.0865166516651665,0.7133647798742139,1.0865166516651665,1.0426100628930817,1.0865166516651665,1.1706498951781972,1.0865166516651665,1.0791928721174004,1.0865166516651665,0.9145702306079665,1.0865166516651665,1.0791928721174004
475,1.088808880888089,0.7133647798742139,1.088808880888089,1.0426100628930817,1.088808880888089,1.1706498951781972,1.088808880888089,1.0791928721174004,1.088808880888089,0.9145702306079665,1.088808880888089,1.0791928721174004
476,1.091101110111011,0.7133647798742139,1.091101110111011,1.0426100628930817,1.091101110111011,1.1706498951781972,1.091101110111011,1.0791928721174004,1.091101110111011,0.9145702306079665,1.091101110111011,1.0791928721174004
477,1.0933933393339335,0.7133647798742139,1.0933933393339335,1.0426100628930817,1.0933933393339335,1.1706498951781972,1.0933933393339335,1.0791928721174004,1.0933933393339335,0.9145702306079665,1.0933933393339335,1.0791928721174004
478,1.0956855685568558,0.7133647798742139,1.0956855685568558,1.0426100628930817,1.0956855685568558,1.1706498951781972,1.0956855685568558,1.0791928721174004,1.0956855685568558,0.8962788259958071,1.0956855685568558,1.0974842767295598
479,1.097977797779778,0.7133647798742139,1.097977797779778,1.0426100628930817,1.097977797779778,1.1706498951781972,1.097977797779778,1.0791928721174004,1.097977797779778,0.7316561844863732,1.097977797779778,1.0974842767295598
480,1.1002700270027004,0.7133647798742139,1.1002700270027004,1.0426100628930817,1.1002700270027004,1.1706498951781972,1.1002700270027004,1.0791928721174004,1.1002700270027004,0.7133647798742139,1.1002700270027004,1.0974842767295598
481,1.1025622562256225,0.7316561844863732,1.1025622562256225,1.060901467505241,1.1025622562256225,1.1706498951781972,1.1025622562256225,1.0791928721174004,1.1025622562256225,0.7316561844863732,1.1025622562256225,1.0974842767295598
482,1.104854485448545,0.7316561844863732,1.104854485448545,1.060901467505241,1.104854485448545,1.1706498951781972,1.104854485448545,1.0791928721174004,1.104854485448545,0.7865303983228512,1.104854485448545,1.0974842767295598
483,1.1071467146714673,0.7316561844863732,1.1071467146714673,1.060901467505241,1.1071467146714673,1.1706498951781972,1.1071467146714673,1.0791928721174004,1.1071467146714673,0.8596960167714884,1.1071467146714673,1.0974842767295598
484,1.1094389438943895,0.7316561844863732,1.1094389438943895,1.0791928721174004,1.1094389438943895,1.1706498951781972,1.1094389438943895,1.0791928721174004,1.1094389438943895,0.8962788259958071,1.1094389438943895,1.0974842767295598
485,1.1117311731173118,0.7499475890985325,1.1117311731173118,1.0791928721174004,1.1117311731173118,1.1706498951781972,1.1117311731173118,1.0791928721174004,1.1117311731173118,0.9145702306079665,1.1117311731173118,1.0974842767295598
486,1.114023402340234,0.7499475890985325,1.114023402340234,1.0791928721174004,1.114023402340234,1.1706498951781972,1.114023402340234,1.0791928721174004,1.114023402340234,0.9145702306079665,1.114023402340234,1.0974842767295598
487,1.1163156315631564,0.7499475890985325,1.1163156315631564,1.0791928721174004,1.1163156315631564,1.1706498951781972,1.1163156315631564,1.0791928721174004,1.1163156315631564,0.9328616352201258,1.1163156315631564,1.0974842767295598
488,1.1186078607860788,0.7499475890985325,1.1186078607860788,1.0791928721174004,1.1186078607860788,1.1706498951781972,1.1186078607860788,1.0791928721174004,1.1186078607860788,0.9511530398322852,1.1186078607860788,1.0974842767295598
489,1.120900090009001,0.7499475890985325,1.120900090009001,1.0791928721174004,1.120900090009001,1.1706498951781972,1.120900090009001,1.0791928721174004,1.120900090009001,0.9511530398322852,1.120900090009001,1.0974842767295598
490,1.1231923192319233,0.7499475890985325,1.1231923192319233,1.0791928721174004,1.1231923192319233,1.1706498951781972,1.1231923192319233,1.0791928721174004,1.1231923192319233,0.9511530398322852,1.1231923192319233,1.0974842767295598
491,1.1254845484548455,0.7499475890985325,1.1254845484548455,1.0791928721174004,1.1254845484548455,1.1706498951781972,1.1254845484548455,1.060901467505241,1.1254845484548455,0.9511530398322852,1.1254845484548455,1.0974842767295598
492,1.1277767776777678,0.7499475890985325,1.1277767776777678,1.0791928721174004,1.1277767776777678,1.1706498951781972,1.1277767776777678,1.060901467505241,1.1277767776777678,0.9511530398322852,1.1277767776777678,1.0974842767295598
493,1.1300690069006902,0.7499475890985325,1.1300690069006902,1.0791928721174004,1.1300690069006902,1.1706498951781972,1.1300690069006902,1.060901467505241,1.1300690069006902,0.9511530398322852,1.1300690069006902,1.0974842767295598
494,1.1323612361236124,0.7499475890985325,1.1323612361236124,1.0791928721174004,1.1323612361236124,1.1706498951781972,1.1323612361236124,1.060901467505241,1.1323612361236124,0.9511530398322852,1.1323612361236124,1.0974842767295598
495,1.1346534653465348,0.7499475890985325,1.1346534653465348,1.0791928721174004,1.1346534653465348,1.1706498951781972,1.1346534653465348,1.060901467505241,1.1346534653465348,0.9511530398322852,1.1346534653465348,1.0974842767295598
496,1.136945694569457,0.7499475890985325,1.136945694569457,1.0791928721174004,1.136945694569457,1.1523584905660378,1.136945694569457,1.060901467505241,1.136945694569457,0.9511530398322852,1.136945694569457,1.0974842767295598
497,1.1392379237923793,0.7499475890985325,1.1392379237923793,1.0791928721174004,1.1392379237923793,1.1523584905660378,1.1392379237923793,1.060901467505241,1.1392379237923793,0.9511530398322852,1.1392379237923793,1.0974842767295598
498,1.1415301530153017,0.7499475890985325,1.1415301530153017,1.0791928721174004,1.1415301530153017,1.1340670859538784,1.1415301530153017,1.060901467505241,1.1415301530153017,0.9511530398322852,1.1415301530153017,1.0791928721174004
499,1.1438223822382239,0.7499475890985325,1.1438223822382239,1.0791928721174004,1.1438223822382239,1.115775681341719,1.1438223822382239,1.060901467505241,1.1438223822382239,0.9511530398322852,1.1438223822382239,1.0791928721174004
500,1.1461146114611462,0.7499475890985325,1.1461146114611462,1.0791928721174004,1.1461146114611462,1.0974842767295598,1.1461146114611462,1.060901467505241,1.1461146114611462,0.9511530398322852,1.1461146114611462,1.060901467505241
501,1.1484068406840684,0.7499475890985325,1.1484068406840684,1.0791928721174004,1.1484068406840684,1.0974842767295598,1.1484068406840684,1.060901467505241,1.1484068406840684,0.9511530398322852,1.1484068406840684,1.060901467505241
502,1.1506990699069908,0.7499475890985325,1.1506990699069908,1.0791928721174004,1.1506990699069908,1.0791928721174004,1.1506990699069908,1.060901467505241,1.1506990699069908,0.9511530398322852,1.1506990699069908,1.060901467505241
503,1.1529912991299132,0.7499475890985325,1.1529912991299132,1.0791928721174004,1.1529912991299132,1.060901467505241,1.1529912991299132,1.0426100628930817,1.1529912991299132,0.9511530398322852,1.1529912991299132,1.0426100628930817
504,1.1552835283528353,0.7499475890985325,1.1552835283528353,1.060901467505241,1.1552835283528353,1.0426100628930817,1.1552835283528353,1.0243186582809225,1.1552835283528353,0.9511530398322852,1.1552835283528353,1.0426100628930817
505,1.1575757575757577,0.7499475890985325,1.1575757575757577,1.060901467505241,1.1575757575757577,1.0426100628930817,1.1575757575757577,1.0243186582809225,1.1575757575757577,0.9511530398322852,1.1575757575757577,1.0243186582809225
506,1.1598679867986799,0.7499475890985325,1.1598679867986799,1.060901467505241,1.1598679867986799,1.0243186582809225,1.1598679867986799,0.9877358490566038,1.1598679867986799,0.9511530398322852,1.1598679867986799,1.0243186582809225
507,1.1621602160216022,0.7499475890985325,1.1621602160216022,1.060901467505241,1.1621602160216022,1.0243186582809225,1.1621602160216022,0.7499475890985325,1.1621602160216022,0.9511530398322852,1.1621602160216022,1.0243186582809225
508,1.1644524452445246,0.7499475890985325,1.1644524452445246,1.060901467505241,1.1644524452445246,1.006027253668763,1.1644524452445246,0.7133647798742139,1.1644524452445246,0.9511530398322852,1.1644524452445246,1.006027253668763
509,1.1667446744674468,0.7499475890985325,1.1667446744674468,1.060901467505241,1.1667446744674468,0.9877358490566038,1.1667446744674468,0.7133647798742139,1.1667446744674468,0.9511530398322852,1.1667446744674468,1.006027253668763
510,1.1690369036903692,0.7499475890985325,1.1690369036903692,1.060901467505241,1.1690369036903692,0.9877358490566038,1.1690369036903692,0.7316561844863732,1.1690369036903692,0.9511530398322852,1.1690369036903692,1.006027253668763
511,1.1713291329132913,0.7499475890985325,1.1713291329132913,1.060901467505241,1.1713291329132913,0.9694444444444444,1.1713291329132913,0.7682389937106918,1.1713291329132913,0.9511530398322852,1.1713291329132913,0.9877358490566038
512,1.1736213621362137,0.7499475890985325,1.1736213621362137,1.060901467505241,1.1736213621362137,0.9694444444444444,1.1736213621362137,0.7865303983228512,1.1736213621362137,0.9511530398322852,1.1736213621362137,0.9877358490566038
