,x_val,y_val,x_val,y_val,x_val,y_val,x_val,y_val,x_val,y_val,x_val,y_val
0,0.0,0.23149606299212597,0.0,0.0925984251968504,0.0,0.2932283464566929,0.0,0.9105511811023621,0.0,0.21606299212598423,0.0,0.23149606299212597
1,0.0020356083086053413,0.21606299212598423,0.0020356083086053413,0.0925984251968504,0.0020356083086053413,0.2932283464566929,0.0020356083086053413,0.9105511811023621,0.0020356083086053413,0.21606299212598423,0.0020356083086053413,0.23149606299212597
2,0.004071216617210683,0.21606299212598423,0.004071216617210683,0.0925984251968504,0.004071216617210683,0.2932283464566929,0.004071216617210683,0.9105511811023621,0.004071216617210683,0.21606299212598423,0.004071216617210683,0.23149606299212597
3,0.006106824925816024,0.21606299212598423,0.006106824925816024,0.0925984251968504,0.006106824925816024,0.2932283464566929,0.006106824925816024,0.9105511811023621,0.006106824925816024,0.21606299212598423,0.006106824925816024,0.23149606299212597
4,0.008142433234421365,0.2006299212598425,0.008142433234421365,0.0925984251968504,0.008142433234421365,0.2932283464566929,0.008142433234421365,0.9105511811023621,0.008142433234421365,0.21606299212598423,0.008142433234421365,0.23149606299212597
5,0.010178041543026707,0.2006299212598425,0.010178041543026707,0.0925984251968504,0.010178041543026707,0.2932283464566929,0.010178041543026707,0.9105511811023621,0.010178041543026707,0.21606299212598423,0.010178041543026707,0.23149606299212597
6,0.012213649851632048,0.2006299212598425,0.012213649851632048,0.0925984251968504,0.012213649851632048,0.2932283464566929,0.012213649851632048,0.9105511811023621,0.012213649851632048,0.2006299212598425,0.012213649851632048,0.23149606299212597
7,0.01424925816023739,0.2006299212598425,0.01424925816023739,0.10803149606299212,0.01424925816023739,0.2932283464566929,0.01424925816023739,0.8951181102362205,0.01424925816023739,0.0462992125984252,0.01424925816023739,0.23149606299212597
8,0.01628486646884273,0.1851968503937008,0.01628486646884273,0.10803149606299212,0.01628486646884273,0.2932283464566929,0.01628486646884273,0.8951181102362205,0.01628486646884273,0.030866141732283463,0.01628486646884273,0.23149606299212597
9,0.01832047477744807,0.1851968503937008,0.01832047477744807,0.10803149606299212,0.01832047477744807,0.2932283464566929,0.01832047477744807,0.8951181102362205,0.01832047477744807,0.015433070866141731,0.01832047477744807,0.21606299212598423
10,0.020356083086053415,0.1851968503937008,0.020356083086053415,0.10803149606299212,0.020356083086053415,0.2932283464566929,0.020356083086053415,0.6944881889763779,0.020356083086053415,0.015433070866141731,0.020356083086053415,0.21606299212598423
11,0.022391691394658755,0.1851968503937008,0.022391691394658755,0.10803149606299212,0.022391691394658755,0.2932283464566929,0.022391691394658755,0.6636220472440945,0.022391691394658755,0.015433070866141731,0.022391691394658755,0.21606299212598423
12,0.024427299703264096,0.1851968503937008,0.024427299703264096,0.12346456692913385,0.024427299703264096,0.27779527559055117,0.024427299703264096,0.6481889763779527,0.024427299703264096,0.015433070866141731,0.024427299703264096,0.21606299212598423
13,0.026462908011869436,0.1851968503937008,0.026462908011869436,0.12346456692913385,0.026462908011869436,0.27779527559055117,0.026462908011869436,0.6327559055118109,0.026462908011869436,0.015433070866141731,0.026462908011869436,0.21606299212598423
14,0.02849851632047478,0.16976377952755906,0.02849851632047478,0.12346456692913385,0.02849851632047478,0.27779527559055117,0.02849851632047478,0.6018897637795275,0.02849851632047478,0.015433070866141731,0.02849851632047478,0.21606299212598423
15,0.03053412462908012,0.16976377952755906,0.03053412462908012,0.12346456692913385,0.03053412462908012,0.27779527559055117,0.03053412462908012,0.5864566929133858,0.03053412462908012,0.030866141732283463,0.03053412462908012,0.21606299212598423
16,0.03256973293768546,0.16976377952755906,0.03256973293768546,0.12346456692913385,0.03256973293768546,0.27779527559055117,0.03256973293768546,0.5555905511811023,0.03256973293768546,0.030866141732283463,0.03256973293768546,0.21606299212598423
17,0.034605341246290805,0.16976377952755906,0.034605341246290805,0.12346456692913385,0.034605341246290805,0.27779527559055117,0.034605341246290805,0.5401574803149606,0.034605341246290805,0.030866141732283463,0.034605341246290805,0.21606299212598423
18,0.03664094955489614,0.1851968503937008,0.03664094955489614,0.12346456692913385,0.03664094955489614,0.27779527559055117,0.03664094955489614,0.5247244094488188,0.03664094955489614,0.0462992125984252,0.03664094955489614,0.21606299212598423
19,0.038676557863501486,0.1851968503937008,0.038676557863501486,0.12346456692913385,0.038676557863501486,0.2623622047244094,0.038676557863501486,0.5401574803149606,0.038676557863501486,0.061732283464566926,0.038676557863501486,0.2006299212598425
20,0.04071216617210683,0.1851968503937008,0.04071216617210683,0.12346456692913385,0.04071216617210683,0.2469291338582677,0.04071216617210683,0.5710236220472441,0.04071216617210683,0.10803149606299212,0.04071216617210683,0.2006299212598425
21,0.04274777448071217,0.1851968503937008,0.04274777448071217,0.12346456692913385,0.04274777448071217,0.23149606299212597,0.04274777448071217,0.6018897637795275,0.04274777448071217,0.15433070866141732,0.04274777448071217,0.2006299212598425
22,0.04478338278931751,0.1851968503937008,0.04478338278931751,0.12346456692913385,0.04478338278931751,0.21606299212598423,0.04478338278931751,0.6327559055118109,0.04478338278931751,0.1851968503937008,0.04478338278931751,0.1851968503937008
23,0.04681899109792285,0.1851968503937008,0.04681899109792285,0.12346456692913385,0.04681899109792285,0.2006299212598425,0.04681899109792285,0.6481889763779527,0.04681899109792285,0.1851968503937008,0.04681899109792285,0.1851968503937008
24,0.04885459940652819,0.1851968503937008,0.04885459940652819,0.12346456692913385,0.04885459940652819,0.1851968503937008,0.04885459940652819,0.6636220472440945,0.04885459940652819,0.1851968503937008,0.04885459940652819,0.1851968503937008
25,0.050890207715133536,0.1851968503937008,0.050890207715133536,0.12346456692913385,0.050890207715133536,0.16976377952755906,0.050890207715133536,0.6636220472440945,0.050890207715133536,0.1851968503937008,0.050890207715133536,0.1851968503937008
26,0.05292581602373887,0.1851968503937008,0.05292581602373887,0.12346456692913385,0.05292581602373887,0.15433070866141732,0.05292581602373887,0.6636220472440945,0.05292581602373887,0.1851968503937008,0.05292581602373887,0.1851968503937008
27,0.054961424332344216,0.1851968503937008,0.054961424332344216,0.12346456692913385,0.054961424332344216,0.13889763779527559,0.054961424332344216,0.6636220472440945,0.054961424332344216,0.1851968503937008,0.054961424332344216,0.2006299212598425
28,0.05699703264094956,0.1851968503937008,0.05699703264094956,0.12346456692913385,0.05699703264094956,0.12346456692913385,0.05699703264094956,0.6636220472440945,0.05699703264094956,0.1851968503937008,0.05699703264094956,0.2006299212598425
29,0.0590326409495549,0.1851968503937008,0.0590326409495549,0.12346456692913385,0.0590326409495549,0.10803149606299212,0.0590326409495549,0.6636220472440945,0.0590326409495549,0.1851968503937008,0.0590326409495549,0.2006299212598425
30,0.06106824925816024,0.1851968503937008,0.06106824925816024,0.12346456692913385,0.06106824925816024,0.0925984251968504,0.06106824925816024,0.6636220472440945,0.06106824925816024,0.1851968503937008,0.06106824925816024,0.2006299212598425
31,0.06310385756676558,0.1851968503937008,0.06310385756676558,0.10803149606299212,0.06310385756676558,0.0925984251968504,0.06310385756676558,0.6636220472440945,0.06310385756676558,0.1851968503937008,0.06310385756676558,0.2006299212598425
32,0.06513946587537092,0.1851968503937008,0.06513946587537092,0.10803149606299212,0.06513946587537092,0.07716535433070866,0.06513946587537092,0.6636220472440945,0.06513946587537092,0.1851968503937008,0.06513946587537092,0.21606299212598423
33,0.06717507418397627,0.1851968503937008,0.06717507418397627,0.10803149606299212,0.06717507418397627,0.07716535433070866,0.06717507418397627,0.6636220472440945,0.06717507418397627,0.1851968503937008,0.06717507418397627,0.21606299212598423
34,0.06921068249258161,0.1851968503937008,0.06921068249258161,0.10803149606299212,0.06921068249258161,0.07716535433070866,0.06921068249258161,0.6636220472440945,0.06921068249258161,0.1851968503937008,0.06921068249258161,0.21606299212598423
35,0.07124629080118695,0.1851968503937008,0.07124629080118695,0.10803149606299212,0.07124629080118695,0.07716535433070866,0.07124629080118695,0.6636220472440945,0.07124629080118695,0.1851968503937008,0.07124629080118695,0.21606299212598423
36,0.07328189910979228,0.1851968503937008,0.07328189910979228,0.10803149606299212,0.07328189910979228,0.07716535433070866,0.07328189910979228,0.6636220472440945,0.07328189910979228,0.1851968503937008,0.07328189910979228,0.21606299212598423
37,0.07531750741839763,0.1851968503937008,0.07531750741839763,0.10803149606299212,0.07531750741839763,0.07716535433070866,0.07531750741839763,0.6636220472440945,0.07531750741839763,0.1851968503937008,0.07531750741839763,0.21606299212598423
38,0.07735311572700297,0.1851968503937008,0.07735311572700297,0.0925984251968504,0.07735311572700297,0.07716535433070866,0.07735311572700297,0.6636220472440945,0.07735311572700297,0.1851968503937008,0.07735311572700297,0.21606299212598423
39,0.07938872403560832,0.1851968503937008,0.07938872403560832,0.0925984251968504,0.07938872403560832,0.07716535433070866,0.07938872403560832,0.6636220472440945,0.07938872403560832,0.1851968503937008,0.07938872403560832,0.21606299212598423
40,0.08142433234421366,0.1851968503937008,0.08142433234421366,0.0925984251968504,0.08142433234421366,0.061732283464566926,0.08142433234421366,0.6636220472440945,0.08142433234421366,0.1851968503937008,0.08142433234421366,0.21606299212598423
41,0.08345994065281899,0.1851968503937008,0.08345994065281899,0.0925984251968504,0.08345994065281899,0.061732283464566926,0.08345994065281899,0.6636220472440945,0.08345994065281899,0.1851968503937008,0.08345994065281899,0.21606299212598423
42,0.08549554896142433,0.1851968503937008,0.08549554896142433,0.0925984251968504,0.08549554896142433,0.061732283464566926,0.08549554896142433,0.6636220472440945,0.08549554896142433,0.1851968503937008,0.08549554896142433,0.21606299212598423
43,0.08753115727002968,0.1851968503937008,0.08753115727002968,0.07716535433070866,0.08753115727002968,0.07716535433070866,0.08753115727002968,0.6481889763779527,0.08753115727002968,0.1851968503937008,0.08753115727002968,0.21606299212598423
44,0.08956676557863502,0.1851968503937008,0.08956676557863502,0.0925984251968504,0.08956676557863502,0.1851968503937008,0.08956676557863502,0.6481889763779527,0.08956676557863502,0.1851968503937008,0.08956676557863502,0.23149606299212597
45,0.09160237388724037,0.1851968503937008,0.09160237388724037,0.0925984251968504,0.09160237388724037,0.2006299212598425,0.09160237388724037,0.6481889763779527,0.09160237388724037,0.1851968503937008,0.09160237388724037,0.23149606299212597
46,0.0936379821958457,0.1851968503937008,0.0936379821958457,0.0925984251968504,0.0936379821958457,0.21606299212598423,0.0936379821958457,0.6481889763779527,0.0936379821958457,0.1851968503937008,0.0936379821958457,0.23149606299212597
47,0.09567359050445104,0.1851968503937008,0.09567359050445104,0.0925984251968504,0.09567359050445104,0.23149606299212597,0.09567359050445104,0.6481889763779527,0.09567359050445104,0.1851968503937008,0.09567359050445104,0.23149606299212597
48,0.09770919881305638,0.2006299212598425,0.09770919881305638,0.0925984251968504,0.09770919881305638,0.23149606299212597,0.09770919881305638,0.6481889763779527,0.09770919881305638,0.1851968503937008,0.09770919881305638,0.23149606299212597
49,0.09974480712166173,0.2006299212598425,0.09974480712166173,0.0925984251968504,0.09974480712166173,0.23149606299212597,0.09974480712166173,0.6481889763779527,0.09974480712166173,0.1851968503937008,0.09974480712166173,0.23149606299212597
50,0.10178041543026707,0.2006299212598425,0.10178041543026707,0.0925984251968504,0.10178041543026707,0.23149606299212597,0.10178041543026707,0.6481889763779527,0.10178041543026707,0.1851968503937008,0.10178041543026707,0.23149606299212597
51,0.10381602373887241,0.2006299212598425,0.10381602373887241,0.0925984251968504,0.10381602373887241,0.23149606299212597,0.10381602373887241,0.6481889763779527,0.10381602373887241,0.1851968503937008,0.10381602373887241,0.23149606299212597
52,0.10585163204747775,0.2006299212598425,0.10585163204747775,0.10803149606299212,0.10585163204747775,0.23149606299212597,0.10585163204747775,0.6481889763779527,0.10585163204747775,0.1851968503937008,0.10585163204747775,0.23149606299212597
53,0.10788724035608309,0.21606299212598423,0.10788724035608309,0.10803149606299212,0.10788724035608309,0.23149606299212597,0.10788724035608309,0.6481889763779527,0.10788724035608309,0.1851968503937008,0.10788724035608309,0.23149606299212597
54,0.10992284866468843,0.21606299212598423,0.10992284866468843,0.10803149606299212,0.10992284866468843,0.23149606299212597,0.10992284866468843,0.6481889763779527,0.10992284866468843,0.1851968503937008,0.10992284866468843,0.2469291338582677
55,0.11195845697329378,0.21606299212598423,0.11195845697329378,0.10803149606299212,0.11195845697329378,0.23149606299212597,0.11195845697329378,0.6481889763779527,0.11195845697329378,0.1851968503937008,0.11195845697329378,0.2469291338582677
56,0.11399406528189912,0.21606299212598423,0.11399406528189912,0.10803149606299212,0.11399406528189912,0.23149606299212597,0.11399406528189912,0.6481889763779527,0.11399406528189912,0.1851968503937008,0.11399406528189912,0.2469291338582677
57,0.11602967359050445,0.21606299212598423,0.11602967359050445,0.10803149606299212,0.11602967359050445,0.23149606299212597,0.11602967359050445,0.6481889763779527,0.11602967359050445,0.1851968503937008,0.11602967359050445,0.2469291338582677
58,0.1180652818991098,0.21606299212598423,0.1180652818991098,0.10803149606299212,0.1180652818991098,0.23149606299212597,0.1180652818991098,0.6481889763779527,0.1180652818991098,0.1851968503937008,0.1180652818991098,0.2469291338582677
59,0.12010089020771514,0.21606299212598423,0.12010089020771514,0.10803149606299212,0.12010089020771514,0.23149606299212597,0.12010089020771514,0.6481889763779527,0.12010089020771514,0.1851968503937008,0.12010089020771514,0.2469291338582677
60,0.12213649851632048,0.21606299212598423,0.12213649851632048,0.10803149606299212,0.12213649851632048,0.2469291338582677,0.12213649851632048,0.6481889763779527,0.12213649851632048,0.1851968503937008,0.12213649851632048,0.2469291338582677
61,0.12417210682492583,0.21606299212598423,0.12417210682492583,0.10803149606299212,0.12417210682492583,0.2469291338582677,0.12417210682492583,0.6481889763779527,0.12417210682492583,0.1851968503937008,0.12417210682492583,0.2469291338582677
62,0.12620771513353116,0.21606299212598423,0.12620771513353116,0.10803149606299212,0.12620771513353116,0.2469291338582677,0.12620771513353116,0.6481889763779527,0.12620771513353116,0.1851968503937008,0.12620771513353116,0.2469291338582677
63,0.12824332344213651,0.21606299212598423,0.12824332344213651,0.10803149606299212,0.12824332344213651,0.2469291338582677,0.12824332344213651,0.6481889763779527,0.12824332344213651,0.1851968503937008,0.12824332344213651,0.2469291338582677
64,0.13027893175074184,0.21606299212598423,0.13027893175074184,0.10803149606299212,0.13027893175074184,0.2469291338582677,0.13027893175074184,0.6481889763779527,0.13027893175074184,0.1851968503937008,0.13027893175074184,0.2469291338582677
65,0.13231454005934717,0.21606299212598423,0.13231454005934717,0.10803149606299212,0.13231454005934717,0.2469291338582677,0.13231454005934717,0.6481889763779527,0.13231454005934717,0.2006299212598425,0.13231454005934717,0.2469291338582677
66,0.13435014836795253,0.21606299212598423,0.13435014836795253,0.10803149606299212,0.13435014836795253,0.2469291338582677,0.13435014836795253,0.6481889763779527,0.13435014836795253,0.2006299212598425,0.13435014836795253,0.2469291338582677
67,0.13638575667655786,0.21606299212598423,0.13638575667655786,0.12346456692913385,0.13638575667655786,0.2469291338582677,0.13638575667655786,0.6481889763779527,0.13638575667655786,0.2006299212598425,0.13638575667655786,0.2469291338582677
68,0.13842136498516322,0.21606299212598423,0.13842136498516322,0.12346456692913385,0.13842136498516322,0.2469291338582677,0.13842136498516322,0.6481889763779527,0.13842136498516322,0.2006299212598425,0.13842136498516322,0.2469291338582677
69,0.14045697329376855,0.21606299212598423,0.14045697329376855,0.12346456692913385,0.14045697329376855,0.2469291338582677,0.14045697329376855,0.6481889763779527,0.14045697329376855,0.2006299212598425,0.14045697329376855,0.2469291338582677
70,0.1424925816023739,0.21606299212598423,0.1424925816023739,0.12346456692913385,0.1424925816023739,0.2469291338582677,0.1424925816023739,0.6481889763779527,0.1424925816023739,0.2006299212598425,0.1424925816023739,0.2469291338582677
71,0.14452818991097924,0.21606299212598423,0.14452818991097924,0.12346456692913385,0.14452818991097924,0.2469291338582677,0.14452818991097924,0.6481889763779527,0.14452818991097924,0.2006299212598425,0.14452818991097924,0.2469291338582677
72,0.14656379821958457,0.21606299212598423,0.14656379821958457,0.12346456692913385,0.14656379821958457,0.2469291338582677,0.14656379821958457,0.6636220472440945,0.14656379821958457,0.21606299212598423,0.14656379821958457,0.2469291338582677
73,0.14859940652818993,0.21606299212598423,0.14859940652818993,0.12346456692913385,0.14859940652818993,0.2469291338582677,0.14859940652818993,0.6636220472440945,0.14859940652818993,0.21606299212598423,0.14859940652818993,0.2469291338582677
74,0.15063501483679526,0.21606299212598423,0.15063501483679526,0.12346456692913385,0.15063501483679526,0.2469291338582677,0.15063501483679526,0.6636220472440945,0.15063501483679526,0.21606299212598423,0.15063501483679526,0.2469291338582677
75,0.1526706231454006,0.21606299212598423,0.1526706231454006,0.12346456692913385,0.1526706231454006,0.2469291338582677,0.1526706231454006,0.6636220472440945,0.1526706231454006,0.23149606299212597,0.1526706231454006,0.23149606299212597
76,0.15470623145400594,0.21606299212598423,0.15470623145400594,0.12346456692913385,0.15470623145400594,0.2469291338582677,0.15470623145400594,0.6636220472440945,0.15470623145400594,0.23149606299212597,0.15470623145400594,0.23149606299212597
77,0.15674183976261127,0.21606299212598423,0.15674183976261127,0.12346456692913385,0.15674183976261127,0.2469291338582677,0.15674183976261127,0.6790551181102362,0.15674183976261127,0.2469291338582677,0.15674183976261127,0.21606299212598423
78,0.15877744807121663,0.21606299212598423,0.15877744807121663,0.12346456692913385,0.15877744807121663,0.2469291338582677,0.15877744807121663,0.6790551181102362,0.15877744807121663,0.2469291338582677,0.15877744807121663,0.21606299212598423
79,0.16081305637982196,0.21606299212598423,0.16081305637982196,0.12346456692913385,0.16081305637982196,0.23149606299212597,0.16081305637982196,0.6790551181102362,0.16081305637982196,0.2469291338582677,0.16081305637982196,0.2006299212598425
80,0.16284866468842732,0.21606299212598423,0.16284866468842732,0.12346456692913385,0.16284866468842732,0.21606299212598423,0.16284866468842732,0.6790551181102362,0.16284866468842732,0.2623622047244094,0.16284866468842732,0.2006299212598425
81,0.16488427299703265,0.21606299212598423,0.16488427299703265,0.12346456692913385,0.16488427299703265,0.21606299212598423,0.16488427299703265,0.6790551181102362,0.16488427299703265,0.2623622047244094,0.16488427299703265,0.1851968503937008
82,0.16691988130563798,0.21606299212598423,0.16691988130563798,0.12346456692913385,0.16691988130563798,0.2006299212598425,0.16691988130563798,0.6944881889763779,0.16691988130563798,0.2623622047244094,0.16691988130563798,0.1851968503937008
83,0.16895548961424334,0.21606299212598423,0.16895548961424334,0.12346456692913385,0.16895548961424334,0.1851968503937008,0.16895548961424334,0.6944881889763779,0.16895548961424334,0.2623622047244094,0.16895548961424334,0.1851968503937008
84,0.17099109792284867,0.21606299212598423,0.17099109792284867,0.12346456692913385,0.17099109792284867,0.15433070866141732,0.17099109792284867,0.7099212598425196,0.17099109792284867,0.2623622047244094,0.17099109792284867,0.16976377952755906
85,0.17302670623145402,0.21606299212598423,0.17302670623145402,0.12346456692913385,0.17302670623145402,0.13889763779527559,0.17302670623145402,0.7253543307086614,0.17302670623145402,0.2623622047244094,0.17302670623145402,0.16976377952755906
86,0.17506231454005935,0.21606299212598423,0.17506231454005935,0.10803149606299212,0.17506231454005935,0.12346456692913385,0.17506231454005935,0.7407874015748032,0.17506231454005935,0.2623622047244094,0.17506231454005935,0.16976377952755906
87,0.17709792284866469,0.21606299212598423,0.17709792284866469,0.10803149606299212,0.17709792284866469,0.10803149606299212,0.17709792284866469,0.7716535433070866,0.17709792284866469,0.2623622047244094,0.17709792284866469,0.16976377952755906
88,0.17913353115727004,0.21606299212598423,0.17913353115727004,0.10803149606299212,0.17913353115727004,0.10803149606299212,0.17913353115727004,0.7870866141732283,0.17913353115727004,0.2623622047244094,0.17913353115727004,0.16976377952755906
89,0.18116913946587537,0.21606299212598423,0.18116913946587537,0.0925984251968504,0.18116913946587537,0.0925984251968504,0.18116913946587537,0.80251968503937,0.18116913946587537,0.2623622047244094,0.18116913946587537,0.15433070866141732
90,0.18320474777448073,0.2006299212598425,0.18320474777448073,0.0925984251968504,0.18320474777448073,0.0925984251968504,0.18320474777448073,0.80251968503937,0.18320474777448073,0.27779527559055117,0.18320474777448073,0.15433070866141732
91,0.18524035608308606,0.2006299212598425,0.18524035608308606,0.0925984251968504,0.18524035608308606,0.0925984251968504,0.18524035608308606,0.80251968503937,0.18524035608308606,0.27779527559055117,0.18524035608308606,0.15433070866141732
92,0.1872759643916914,0.2006299212598425,0.1872759643916914,0.0925984251968504,0.1872759643916914,0.0925984251968504,0.1872759643916914,0.80251968503937,0.1872759643916914,0.27779527559055117,0.1872759643916914,0.15433070866141732
93,0.18931157270029675,0.2006299212598425,0.18931157270029675,0.0925984251968504,0.18931157270029675,0.0925984251968504,0.18931157270029675,0.80251968503937,0.18931157270029675,0.27779527559055117,0.18931157270029675,0.15433070866141732
94,0.19134718100890208,0.2006299212598425,0.19134718100890208,0.0925984251968504,0.19134718100890208,0.0925984251968504,0.19134718100890208,0.80251968503937,0.19134718100890208,0.27779527559055117,0.19134718100890208,0.13889763779527559
95,0.19338278931750744,0.2006299212598425,0.19338278931750744,0.0925984251968504,0.19338278931750744,0.07716535433070866,0.19338278931750744,0.80251968503937,0.19338278931750744,0.2932283464566929,0.19338278931750744,0.12346456692913385
96,0.19541839762611277,0.1851968503937008,0.19541839762611277,0.0925984251968504,0.19541839762611277,0.07716535433070866,0.19541839762611277,0.80251968503937,0.19541839762611277,0.2932283464566929,0.19541839762611277,0.10803149606299212
97,0.19745400593471812,0.1851968503937008,0.19745400593471812,0.0925984251968504,0.19745400593471812,0.07716535433070866,0.19745400593471812,0.80251968503937,0.19745400593471812,0.2932283464566929,0.19745400593471812,0.07716535433070866
98,0.19948961424332345,0.2006299212598425,0.19948961424332345,0.0925984251968504,0.19948961424332345,0.061732283464566926,0.19948961424332345,0.80251968503937,0.19948961424332345,0.2932283464566929,0.19948961424332345,0.061732283464566926
99,0.20152522255192878,0.2006299212598425,0.20152522255192878,0.0925984251968504,0.20152522255192878,0.061732283464566926,0.20152522255192878,0.80251968503937,0.20152522255192878,0.2932283464566929,0.20152522255192878,0.061732283464566926
100,0.20356083086053414,0.2006299212598425,0.20356083086053414,0.0925984251968504,0.20356083086053414,0.061732283464566926,0.20356083086053414,0.80251968503937,0.20356083086053414,0.30866141732283464,0.20356083086053414,0.0462992125984252
101,0.20559643916913947,0.21606299212598423,0.20559643916913947,0.0925984251968504,0.20559643916913947,0.061732283464566926,0.20559643916913947,0.80251968503937,0.20559643916913947,0.30866141732283464,0.20559643916913947,0.0462992125984252
102,0.20763204747774483,0.21606299212598423,0.20763204747774483,0.07716535433070866,0.20763204747774483,0.061732283464566926,0.20763204747774483,0.80251968503937,0.20763204747774483,0.30866141732283464,0.20763204747774483,0.0462992125984252
103,0.20966765578635016,0.21606299212598423,0.20966765578635016,0.07716535433070866,0.20966765578635016,0.061732283464566926,0.20966765578635016,0.80251968503937,0.20966765578635016,0.30866141732283464,0.20966765578635016,0.0462992125984252
104,0.2117032640949555,0.21606299212598423,0.2117032640949555,0.07716535433070866,0.2117032640949555,0.061732283464566926,0.2117032640949555,0.80251968503937,0.2117032640949555,0.30866141732283464,0.2117032640949555,0.0462992125984252
105,0.21373887240356085,0.21606299212598423,0.21373887240356085,0.07716535433070866,0.21373887240356085,0.061732283464566926,0.21373887240356085,0.80251968503937,0.21373887240356085,0.30866141732283464,0.21373887240356085,0.0462992125984252
106,0.21577448071216618,0.21606299212598423,0.21577448071216618,0.07716535433070866,0.21577448071216618,0.061732283464566926,0.21577448071216618,0.80251968503937,0.21577448071216618,0.30866141732283464,0.21577448071216618,0.0462992125984252
107,0.21781008902077154,0.21606299212598423,0.21781008902077154,0.07716535433070866,0.21781008902077154,0.061732283464566926,0.21781008902077154,0.80251968503937,0.21781008902077154,0.30866141732283464,0.21781008902077154,0.0462992125984252
108,0.21984569732937687,0.21606299212598423,0.21984569732937687,0.07716535433070866,0.21984569732937687,0.061732283464566926,0.21984569732937687,0.80251968503937,0.21984569732937687,0.30866141732283464,0.21984569732937687,0.0462992125984252
109,0.2218813056379822,0.21606299212598423,0.2218813056379822,0.07716535433070866,0.2218813056379822,0.061732283464566926,0.2218813056379822,0.80251968503937,0.2218813056379822,0.30866141732283464,0.2218813056379822,0.0462992125984252
110,0.22391691394658755,0.21606299212598423,0.22391691394658755,0.07716535433070866,0.22391691394658755,0.061732283464566926,0.22391691394658755,0.80251968503937,0.22391691394658755,0.30866141732283464,0.22391691394658755,0.0462992125984252
111,0.22595252225519288,0.21606299212598423,0.22595252225519288,0.07716535433070866,0.22595252225519288,0.061732283464566926,0.22595252225519288,0.7870866141732283,0.22595252225519288,0.30866141732283464,0.22595252225519288,0.0462992125984252
112,0.22798813056379824,0.21606299212598423,0.22798813056379824,0.07716535433070866,0.22798813056379824,0.061732283464566926,0.22798813056379824,0.7716535433070866,0.22798813056379824,0.30866141732283464,0.22798813056379824,0.0462992125984252
113,0.23002373887240357,0.21606299212598423,0.23002373887240357,0.07716535433070866,0.23002373887240357,0.061732283464566926,0.23002373887240357,0.7716535433070866,0.23002373887240357,0.30866141732283464,0.23002373887240357,0.0462992125984252
114,0.2320593471810089,0.21606299212598423,0.2320593471810089,0.07716535433070866,0.2320593471810089,0.061732283464566926,0.2320593471810089,0.7562204724409448,0.2320593471810089,0.30866141732283464,0.2320593471810089,0.0462992125984252
115,0.23409495548961426,0.21606299212598423,0.23409495548961426,0.07716535433070866,0.23409495548961426,0.061732283464566926,0.23409495548961426,0.7562204724409448,0.23409495548961426,0.32409448818897635,0.23409495548961426,0.0462992125984252
116,0.2361305637982196,0.21606299212598423,0.2361305637982196,0.07716535433070866,0.2361305637982196,0.061732283464566926,0.2361305637982196,0.7407874015748032,0.2361305637982196,0.32409448818897635,0.2361305637982196,0.0462992125984252
117,0.23816617210682495,0.23149606299212597,0.23816617210682495,0.07716535433070866,0.23816617210682495,0.061732283464566926,0.23816617210682495,0.7407874015748032,0.23816617210682495,0.32409448818897635,0.23816617210682495,0.0462992125984252
118,0.24020178041543028,0.23149606299212597,0.24020178041543028,0.07716535433070866,0.24020178041543028,0.0462992125984252,0.24020178041543028,0.7253543307086614,0.24020178041543028,0.32409448818897635,0.24020178041543028,0.0462992125984252
119,0.2422373887240356,0.23149606299212597,0.2422373887240356,0.07716535433070866,0.2422373887240356,0.0462992125984252,0.2422373887240356,0.7099212598425196,0.2422373887240356,0.32409448818897635,0.2422373887240356,0.061732283464566926
120,0.24427299703264096,0.23149606299212597,0.24427299703264096,0.0925984251968504,0.24427299703264096,0.0462992125984252,0.24427299703264096,0.6790551181102362,0.24427299703264096,0.32409448818897635,0.24427299703264096,0.061732283464566926
121,0.2463086053412463,0.2469291338582677,0.2463086053412463,0.0925984251968504,0.2463086053412463,0.0462992125984252,0.2463086053412463,0.6327559055118109,0.2463086053412463,0.32409448818897635,0.2463086053412463,0.0925984251968504
122,0.24834421364985165,0.2469291338582677,0.24834421364985165,0.0925984251968504,0.24834421364985165,0.0462992125984252,0.24834421364985165,0.5401574803149606,0.24834421364985165,0.32409448818897635,0.24834421364985165,0.15433070866141732
123,0.250379821958457,0.2623622047244094,0.250379821958457,0.0925984251968504,0.250379821958457,0.0462992125984252,0.250379821958457,0.46299212598425193,0.250379821958457,0.32409448818897635,0.250379821958457,0.1851968503937008
124,0.2524154302670623,0.2623622047244094,0.2524154302670623,0.0925984251968504,0.2524154302670623,0.0462992125984252,0.2524154302670623,0.3858267716535433,0.2524154302670623,0.32409448818897635,0.2524154302670623,0.1851968503937008
125,0.25445103857566764,0.2623622047244094,0.25445103857566764,0.0925984251968504,0.25445103857566764,0.0462992125984252,0.25445103857566764,0.32409448818897635,0.25445103857566764,0.32409448818897635,0.25445103857566764,0.1851968503937008
126,0.25648664688427303,0.2623622047244094,0.25648664688427303,0.0925984251968504,0.25648664688427303,0.0462992125984252,0.25648664688427303,0.2932283464566929,0.25648664688427303,0.32409448818897635,0.25648664688427303,0.1851968503937008
127,0.25852225519287836,0.2623622047244094,0.25852225519287836,0.0925984251968504,0.25852225519287836,0.061732283464566926,0.25852225519287836,0.2623622047244094,0.25852225519287836,0.32409448818897635,0.25852225519287836,0.1851968503937008
128,0.2605578635014837,0.2623622047244094,0.2605578635014837,0.0925984251968504,0.2605578635014837,0.061732283464566926,0.2605578635014837,0.2469291338582677,0.2605578635014837,0.32409448818897635,0.2605578635014837,0.1851968503937008
129,0.262593471810089,0.2623622047244094,0.262593471810089,0.0925984251968504,0.262593471810089,0.07716535433070866,0.262593471810089,0.21606299212598423,0.262593471810089,0.32409448818897635,0.262593471810089,0.1851968503937008
130,0.26462908011869435,0.2623622047244094,0.26462908011869435,0.0925984251968504,0.26462908011869435,0.0925984251968504,0.26462908011869435,0.2006299212598425,0.26462908011869435,0.32409448818897635,0.26462908011869435,0.1851968503937008
131,0.26666468842729973,0.2623622047244094,0.26666468842729973,0.0925984251968504,0.26666468842729973,0.10803149606299212,0.26666468842729973,0.1851968503937008,0.26666468842729973,0.32409448818897635,0.26666468842729973,0.1851968503937008
132,0.26870029673590506,0.2623622047244094,0.26870029673590506,0.0925984251968504,0.26870029673590506,0.15433070866141732,0.26870029673590506,0.16976377952755906,0.26870029673590506,0.32409448818897635,0.26870029673590506,0.1851968503937008
133,0.2707359050445104,0.2623622047244094,0.2707359050445104,0.0925984251968504,0.2707359050445104,0.2006299212598425,0.2707359050445104,0.16976377952755906,0.2707359050445104,0.32409448818897635,0.2707359050445104,0.1851968503937008
134,0.2727715133531157,0.2623622047244094,0.2727715133531157,0.0925984251968504,0.2727715133531157,0.2006299212598425,0.2727715133531157,0.16976377952755906,0.2727715133531157,0.30866141732283464,0.2727715133531157,0.1851968503937008
135,0.2748071216617211,0.2623622047244094,0.2748071216617211,0.0925984251968504,0.2748071216617211,0.2006299212598425,0.2748071216617211,0.1851968503937008,0.2748071216617211,0.2932283464566929,0.2748071216617211,0.1851968503937008
136,0.27684272997032644,0.2623622047244094,0.27684272997032644,0.0925984251968504,0.27684272997032644,0.2006299212598425,0.27684272997032644,0.2006299212598425,0.27684272997032644,0.2932283464566929,0.27684272997032644,0.1851968503937008
137,0.27887833827893177,0.2623622047244094,0.27887833827893177,0.0925984251968504,0.27887833827893177,0.2006299212598425,0.27887833827893177,0.21606299212598423,0.27887833827893177,0.27779527559055117,0.27887833827893177,0.1851968503937008
138,0.2809139465875371,0.2623622047244094,0.2809139465875371,0.0925984251968504,0.2809139465875371,0.2006299212598425,0.2809139465875371,0.23149606299212597,0.2809139465875371,0.27779527559055117,0.2809139465875371,0.1851968503937008
139,0.28294955489614243,0.2623622047244094,0.28294955489614243,0.0925984251968504,0.28294955489614243,0.2006299212598425,0.28294955489614243,0.27779527559055117,0.28294955489614243,0.2623622047244094,0.28294955489614243,0.1851968503937008
140,0.2849851632047478,0.2623622047244094,0.2849851632047478,0.0925984251968504,0.2849851632047478,0.2006299212598425,0.2849851632047478,0.3395275590551181,0.2849851632047478,0.2623622047244094,0.2849851632047478,0.1851968503937008
141,0.28702077151335315,0.2623622047244094,0.28702077151335315,0.0925984251968504,0.28702077151335315,0.2006299212598425,0.28702077151335315,0.6173228346456693,0.28702077151335315,0.2469291338582677,0.28702077151335315,0.1851968503937008
142,0.2890563798219585,0.21606299212598423,0.2890563798219585,0.0925984251968504,0.2890563798219585,0.2006299212598425,0.2890563798219585,0.6481889763779527,0.2890563798219585,0.2469291338582677,0.2890563798219585,0.15433070866141732
143,0.2910919881305638,0.1851968503937008,0.2910919881305638,0.0925984251968504,0.2910919881305638,0.2006299212598425,0.2910919881305638,0.6790551181102362,0.2910919881305638,0.23149606299212597,0.2910919881305638,0.13889763779527559
144,0.29312759643916914,0.15433070866141732,0.29312759643916914,0.0925984251968504,0.29312759643916914,0.2006299212598425,0.29312759643916914,0.6790551181102362,0.29312759643916914,0.23149606299212597,0.29312759643916914,0.12346456692913385
145,0.2951632047477745,0.12346456692913385,0.2951632047477745,0.0925984251968504,0.2951632047477745,0.2006299212598425,0.2951632047477745,0.6790551181102362,0.2951632047477745,0.21606299212598423,0.2951632047477745,0.10803149606299212
146,0.29719881305637985,0.10803149606299212,0.29719881305637985,0.0925984251968504,0.29719881305637985,0.2006299212598425,0.29719881305637985,0.6790551181102362,0.29719881305637985,0.21606299212598423,0.29719881305637985,0.0925984251968504
147,0.2992344213649852,0.0925984251968504,0.2992344213649852,0.0925984251968504,0.2992344213649852,0.2006299212598425,0.2992344213649852,0.6790551181102362,0.2992344213649852,0.21606299212598423,0.2992344213649852,0.0925984251968504
148,0.3012700296735905,0.07716535433070866,0.3012700296735905,0.0925984251968504,0.3012700296735905,0.2006299212598425,0.3012700296735905,0.6790551181102362,0.3012700296735905,0.2006299212598425,0.3012700296735905,0.07716535433070866
149,0.30330563798219584,0.07716535433070866,0.30330563798219584,0.0925984251968504,0.30330563798219584,0.2006299212598425,0.30330563798219584,0.6790551181102362,0.30330563798219584,0.2006299212598425,0.30330563798219584,0.07716535433070866
150,0.3053412462908012,0.07716535433070866,0.3053412462908012,0.0925984251968504,0.3053412462908012,0.2006299212598425,0.3053412462908012,0.6790551181102362,0.3053412462908012,0.2006299212598425,0.3053412462908012,0.07716535433070866
151,0.30737685459940656,0.061732283464566926,0.30737685459940656,0.07716535433070866,0.30737685459940656,0.2006299212598425,0.30737685459940656,0.6790551181102362,0.30737685459940656,0.2006299212598425,0.30737685459940656,0.061732283464566926
152,0.3094124629080119,0.061732283464566926,0.3094124629080119,0.07716535433070866,0.3094124629080119,0.2006299212598425,0.3094124629080119,0.6790551181102362,0.3094124629080119,0.1851968503937008,0.3094124629080119,0.061732283464566926
153,0.3114480712166172,0.061732283464566926,0.3114480712166172,0.07716535433070866,0.3114480712166172,0.2006299212598425,0.3114480712166172,0.6790551181102362,0.3114480712166172,0.1851968503937008,0.3114480712166172,0.061732283464566926
154,0.31348367952522255,0.061732283464566926,0.31348367952522255,0.07716535433070866,0.31348367952522255,0.21606299212598423,0.31348367952522255,0.6790551181102362,0.31348367952522255,0.1851968503937008,0.31348367952522255,0.061732283464566926
155,0.31551928783382793,0.061732283464566926,0.31551928783382793,0.07716535433070866,0.31551928783382793,0.21606299212598423,0.31551928783382793,0.6790551181102362,0.31551928783382793,0.1851968503937008,0.31551928783382793,0.0925984251968504
156,0.31755489614243326,0.07716535433070866,0.31755489614243326,0.061732283464566926,0.31755489614243326,0.21606299212598423,0.31755489614243326,0.6944881889763779,0.31755489614243326,0.1851968503937008,0.31755489614243326,0.21606299212598423
157,0.3195905044510386,0.07716535433070866,0.3195905044510386,0.061732283464566926,0.3195905044510386,0.21606299212598423,0.3195905044510386,0.6944881889763779,0.3195905044510386,0.1851968503937008,0.3195905044510386,0.23149606299212597
158,0.3216261127596439,0.0925984251968504,0.3216261127596439,0.061732283464566926,0.3216261127596439,0.21606299212598423,0.3216261127596439,0.6944881889763779,0.3216261127596439,0.1851968503937008,0.3216261127596439,0.23149606299212597
159,0.32366172106824925,0.0925984251968504,0.32366172106824925,0.061732283464566926,0.32366172106824925,0.21606299212598423,0.32366172106824925,0.6944881889763779,0.32366172106824925,0.1851968503937008,0.32366172106824925,0.23149606299212597
160,0.32569732937685464,0.10803149606299212,0.32569732937685464,0.061732283464566926,0.32569732937685464,0.21606299212598423,0.32569732937685464,0.6944881889763779,0.32569732937685464,0.1851968503937008,0.32569732937685464,0.23149606299212597
161,0.32773293768545997,0.10803149606299212,0.32773293768545997,0.061732283464566926,0.32773293768545997,0.21606299212598423,0.32773293768545997,0.6944881889763779,0.32773293768545997,0.2006299212598425,0.32773293768545997,0.23149606299212597
162,0.3297685459940653,0.12346456692913385,0.3297685459940653,0.061732283464566926,0.3297685459940653,0.21606299212598423,0.3297685459940653,0.6944881889763779,0.3297685459940653,0.2006299212598425,0.3297685459940653,0.23149606299212597
163,0.33180415430267063,0.13889763779527559,0.33180415430267063,0.061732283464566926,0.33180415430267063,0.21606299212598423,0.33180415430267063,0.6944881889763779,0.33180415430267063,0.2006299212598425,0.33180415430267063,0.23149606299212597
164,0.33383976261127596,0.15433070866141732,0.33383976261127596,0.061732283464566926,0.33383976261127596,0.21606299212598423,0.33383976261127596,0.6944881889763779,0.33383976261127596,0.21606299212598423,0.33383976261127596,0.23149606299212597
165,0.33587537091988134,0.16976377952755906,0.33587537091988134,0.061732283464566926,0.33587537091988134,0.21606299212598423,0.33587537091988134,0.6944881889763779,0.33587537091988134,0.21606299212598423,0.33587537091988134,0.23149606299212597
166,0.3379109792284867,0.1851968503937008,0.3379109792284867,0.061732283464566926,0.3379109792284867,0.21606299212598423,0.3379109792284867,0.6944881889763779,0.3379109792284867,0.23149606299212597,0.3379109792284867,0.23149606299212597
167,0.339946587537092,0.1851968503937008,0.339946587537092,0.061732283464566926,0.339946587537092,0.21606299212598423,0.339946587537092,0.6944881889763779,0.339946587537092,0.2469291338582677,0.339946587537092,0.23149606299212597
168,0.34198219584569733,0.2006299212598425,0.34198219584569733,0.061732283464566926,0.34198219584569733,0.21606299212598423,0.34198219584569733,0.6944881889763779,0.34198219584569733,0.2623622047244094,0.34198219584569733,0.23149606299212597
169,0.34401780415430266,0.21606299212598423,0.34401780415430266,0.061732283464566926,0.34401780415430266,0.21606299212598423,0.34401780415430266,0.6944881889763779,0.34401780415430266,0.2623622047244094,0.34401780415430266,0.23149606299212597
170,0.34605341246290805,0.21606299212598423,0.34605341246290805,0.061732283464566926,0.34605341246290805,0.21606299212598423,0.34605341246290805,0.6944881889763779,0.34605341246290805,0.27779527559055117,0.34605341246290805,0.23149606299212597
171,0.3480890207715134,0.23149606299212597,0.3480890207715134,0.061732283464566926,0.3480890207715134,0.21606299212598423,0.3480890207715134,0.6944881889763779,0.3480890207715134,0.2932283464566929,0.3480890207715134,0.23149606299212597
172,0.3501246290801187,0.23149606299212597,0.3501246290801187,0.061732283464566926,0.3501246290801187,0.21606299212598423,0.3501246290801187,0.6944881889763779,0.3501246290801187,0.2932283464566929,0.3501246290801187,0.23149606299212597
173,0.35216023738872404,0.23149606299212597,0.35216023738872404,0.061732283464566926,0.35216023738872404,0.21606299212598423,0.35216023738872404,0.6944881889763779,0.35216023738872404,0.2932283464566929,0.35216023738872404,0.23149606299212597
174,0.35419584569732937,0.23149606299212597,0.35419584569732937,0.061732283464566926,0.35419584569732937,0.21606299212598423,0.35419584569732937,0.6944881889763779,0.35419584569732937,0.2932283464566929,0.35419584569732937,0.23149606299212597
175,0.35623145400593476,0.23149606299212597,0.35623145400593476,0.061732283464566926,0.35623145400593476,0.2006299212598425,0.35623145400593476,0.6944881889763779,0.35623145400593476,0.2932283464566929,0.35623145400593476,0.23149606299212597
176,0.3582670623145401,0.23149606299212597,0.3582670623145401,0.061732283464566926,0.3582670623145401,0.2006299212598425,0.3582670623145401,0.6944881889763779,0.3582670623145401,0.2932283464566929,0.3582670623145401,0.23149606299212597
177,0.3603026706231454,0.23149606299212597,0.3603026706231454,0.061732283464566926,0.3603026706231454,0.2006299212598425,0.3603026706231454,0.6944881889763779,0.3603026706231454,0.2932283464566929,0.3603026706231454,0.23149606299212597
178,0.36233827893175075,0.23149606299212597,0.36233827893175075,0.061732283464566926,0.36233827893175075,0.2006299212598425,0.36233827893175075,0.6944881889763779,0.36233827893175075,0.2932283464566929,0.36233827893175075,0.21606299212598423
179,0.3643738872403561,0.23149606299212597,0.3643738872403561,0.061732283464566926,0.3643738872403561,0.2006299212598425,0.3643738872403561,0.6944881889763779,0.3643738872403561,0.2932283464566929,0.3643738872403561,0.21606299212598423
180,0.36640949554896146,0.23149606299212597,0.36640949554896146,0.061732283464566926,0.36640949554896146,0.2006299212598425,0.36640949554896146,0.6790551181102362,0.36640949554896146,0.2932283464566929,0.36640949554896146,0.21606299212598423
181,0.3684451038575668,0.23149606299212597,0.3684451038575668,0.061732283464566926,0.3684451038575668,0.1851968503937008,0.3684451038575668,0.6790551181102362,0.3684451038575668,0.2932283464566929,0.3684451038575668,0.21606299212598423
182,0.3704807121661721,0.23149606299212597,0.3704807121661721,0.061732283464566926,0.3704807121661721,0.1851968503937008,0.3704807121661721,0.6790551181102362,0.3704807121661721,0.2932283464566929,0.3704807121661721,0.21606299212598423
183,0.37251632047477745,0.23149606299212597,0.37251632047477745,0.061732283464566926,0.37251632047477745,0.1851968503937008,0.37251632047477745,0.6790551181102362,0.37251632047477745,0.2932283464566929,0.37251632047477745,0.21606299212598423
184,0.3745519287833828,0.23149606299212597,0.3745519287833828,0.061732283464566926,0.3745519287833828,0.1851968503937008,0.3745519287833828,0.6790551181102362,0.3745519287833828,0.2932283464566929,0.3745519287833828,0.21606299212598423
185,0.37658753709198817,0.23149606299212597,0.37658753709198817,0.061732283464566926,0.37658753709198817,0.1851968503937008,0.37658753709198817,0.6790551181102362,0.37658753709198817,0.2932283464566929,0.37658753709198817,0.21606299212598423
186,0.3786231454005935,0.2469291338582677,0.3786231454005935,0.061732283464566926,0.3786231454005935,0.1851968503937008,0.3786231454005935,0.6790551181102362,0.3786231454005935,0.2932283464566929,0.3786231454005935,0.21606299212598423
187,0.3806587537091988,0.2469291338582677,0.3806587537091988,0.061732283464566926,0.3806587537091988,0.16976377952755906,0.3806587537091988,0.6790551181102362,0.3806587537091988,0.30866141732283464,0.3806587537091988,0.21606299212598423
188,0.38269436201780416,0.2469291338582677,0.38269436201780416,0.061732283464566926,0.38269436201780416,0.15433070866141732,0.38269436201780416,0.6636220472440945,0.38269436201780416,0.30866141732283464,0.38269436201780416,0.21606299212598423
189,0.38472997032640954,0.2469291338582677,0.38472997032640954,0.061732283464566926,0.38472997032640954,0.12346456692913385,0.38472997032640954,0.6636220472440945,0.38472997032640954,0.32409448818897635,0.38472997032640954,0.21606299212598423
190,0.3867655786350149,0.2469291338582677,0.3867655786350149,0.07716535433070866,0.3867655786350149,0.0925984251968504,0.3867655786350149,0.6636220472440945,0.3867655786350149,0.32409448818897635,0.3867655786350149,0.21606299212598423
191,0.3888011869436202,0.2469291338582677,0.3888011869436202,0.07716535433070866,0.3888011869436202,0.07716535433070866,0.3888011869436202,0.6481889763779527,0.3888011869436202,0.32409448818897635,0.3888011869436202,0.21606299212598423
192,0.39083679525222553,0.2469291338582677,0.39083679525222553,0.07716535433070866,0.39083679525222553,0.07716535433070866,0.39083679525222553,0.6481889763779527,0.39083679525222553,0.32409448818897635,0.39083679525222553,0.21606299212598423
193,0.39287240356083086,0.2469291338582677,0.39287240356083086,0.07716535433070866,0.39287240356083086,0.07716535433070866,0.39287240356083086,0.6481889763779527,0.39287240356083086,0.32409448818897635,0.39287240356083086,0.21606299212598423
194,0.39490801186943625,0.2469291338582677,0.39490801186943625,0.07716535433070866,0.39490801186943625,0.07716535433070866,0.39490801186943625,0.6481889763779527,0.39490801186943625,0.32409448818897635,0.39490801186943625,0.21606299212598423
195,0.3969436201780416,0.2469291338582677,0.3969436201780416,0.07716535433070866,0.3969436201780416,0.07716535433070866,0.3969436201780416,0.6481889763779527,0.3969436201780416,0.32409448818897635,0.3969436201780416,0.23149606299212597
196,0.3989792284866469,0.2469291338582677,0.3989792284866469,0.07716535433070866,0.3989792284866469,0.07716535433070866,0.3989792284866469,0.6481889763779527,0.3989792284866469,0.32409448818897635,0.3989792284866469,0.23149606299212597
197,0.40101483679525224,0.2469291338582677,0.40101483679525224,0.07716535433070866,0.40101483679525224,0.07716535433070866,0.40101483679525224,0.6481889763779527,0.40101483679525224,0.32409448818897635,0.40101483679525224,0.23149606299212597
198,0.40305044510385757,0.2469291338582677,0.40305044510385757,0.07716535433070866,0.40305044510385757,0.07716535433070866,0.40305044510385757,0.6481889763779527,0.40305044510385757,0.32409448818897635,0.40305044510385757,0.23149606299212597
199,0.40508605341246295,0.2469291338582677,0.40508605341246295,0.07716535433070866,0.40508605341246295,0.0925984251968504,0.40508605341246295,0.6481889763779527,0.40508605341246295,0.32409448818897635,0.40508605341246295,0.23149606299212597
200,0.4071216617210683,0.2469291338582677,0.4071216617210683,0.07716535433070866,0.4071216617210683,0.10803149606299212,0.4071216617210683,0.6481889763779527,0.4071216617210683,0.32409448818897635,0.4071216617210683,0.23149606299212597
201,0.4091572700296736,0.2469291338582677,0.4091572700296736,0.07716535433070866,0.4091572700296736,0.12346456692913385,0.4091572700296736,0.6481889763779527,0.4091572700296736,0.32409448818897635,0.4091572700296736,0.23149606299212597
202,0.41119287833827894,0.2469291338582677,0.41119287833827894,0.07716535433070866,0.41119287833827894,0.15433070866141732,0.41119287833827894,0.6481889763779527,0.41119287833827894,0.32409448818897635,0.41119287833827894,0.23149606299212597
203,0.4132284866468843,0.2469291338582677,0.4132284866468843,0.07716535433070866,0.4132284866468843,0.16976377952755906,0.4132284866468843,0.6481889763779527,0.4132284866468843,0.32409448818897635,0.4132284866468843,0.23149606299212597
204,0.41526409495548966,0.2469291338582677,0.41526409495548966,0.07716535433070866,0.41526409495548966,0.16976377952755906,0.41526409495548966,0.6481889763779527,0.41526409495548966,0.32409448818897635,0.41526409495548966,0.23149606299212597
205,0.417299703264095,0.2469291338582677,0.417299703264095,0.07716535433070866,0.417299703264095,0.1851968503937008,0.417299703264095,0.6481889763779527,0.417299703264095,0.32409448818897635,0.417299703264095,0.23149606299212597
206,0.4193353115727003,0.2469291338582677,0.4193353115727003,0.07716535433070866,0.4193353115727003,0.1851968503937008,0.4193353115727003,0.6481889763779527,0.4193353115727003,0.32409448818897635,0.4193353115727003,0.23149606299212597
207,0.42137091988130565,0.2469291338582677,0.42137091988130565,0.07716535433070866,0.42137091988130565,0.1851968503937008,0.42137091988130565,0.6481889763779527,0.42137091988130565,0.32409448818897635,0.42137091988130565,0.23149606299212597
208,0.423406528189911,0.2469291338582677,0.423406528189911,0.07716535433070866,0.423406528189911,0.1851968503937008,0.423406528189911,0.6481889763779527,0.423406528189911,0.32409448818897635,0.423406528189911,0.23149606299212597
209,0.42544213649851637,0.2469291338582677,0.42544213649851637,0.07716535433070866,0.42544213649851637,0.1851968503937008,0.42544213649851637,0.6481889763779527,0.42544213649851637,0.30866141732283464,0.42544213649851637,0.2469291338582677
210,0.4274777448071217,0.2469291338582677,0.4274777448071217,0.061732283464566926,0.4274777448071217,0.2006299212598425,0.4274777448071217,0.6481889763779527,0.4274777448071217,0.30866141732283464,0.4274777448071217,0.2469291338582677
211,0.429513353115727,0.2469291338582677,0.429513353115727,0.061732283464566926,0.429513353115727,0.2006299212598425,0.429513353115727,0.6481889763779527,0.429513353115727,0.30866141732283464,0.429513353115727,0.2469291338582677
212,0.43154896142433236,0.2623622047244094,0.43154896142433236,0.061732283464566926,0.43154896142433236,0.2006299212598425,0.43154896142433236,0.6481889763779527,0.43154896142433236,0.2932283464566929,0.43154896142433236,0.2469291338582677
213,0.4335845697329377,0.2623622047244094,0.4335845697329377,0.0462992125984252,0.4335845697329377,0.2006299212598425,0.4335845697329377,0.6481889763779527,0.4335845697329377,0.2932283464566929,0.4335845697329377,0.2469291338582677
214,0.43562017804154307,0.27779527559055117,0.43562017804154307,0.0462992125984252,0.43562017804154307,0.2006299212598425,0.43562017804154307,0.6327559055118109,0.43562017804154307,0.2932283464566929,0.43562017804154307,0.2469291338582677
215,0.4376557863501484,0.27779527559055117,0.4376557863501484,0.0462992125984252,0.4376557863501484,0.2006299212598425,0.4376557863501484,0.6327559055118109,0.4376557863501484,0.2932283464566929,0.4376557863501484,0.2469291338582677
216,0.43969139465875373,0.27779527559055117,0.43969139465875373,0.0462992125984252,0.43969139465875373,0.2006299212598425,0.43969139465875373,0.6327559055118109,0.43969139465875373,0.2932283464566929,0.43969139465875373,0.2469291338582677
217,0.44172700296735906,0.27779527559055117,0.44172700296735906,0.0462992125984252,0.44172700296735906,0.2006299212598425,0.44172700296735906,0.6327559055118109,0.44172700296735906,0.2932283464566929,0.44172700296735906,0.2469291338582677
218,0.4437626112759644,0.27779527559055117,0.4437626112759644,0.0462992125984252,0.4437626112759644,0.2006299212598425,0.4437626112759644,0.6327559055118109,0.4437626112759644,0.2932283464566929,0.4437626112759644,0.2469291338582677
219,0.4457982195845698,0.27779527559055117,0.4457982195845698,0.0462992125984252,0.4457982195845698,0.2006299212598425,0.4457982195845698,0.6327559055118109,0.4457982195845698,0.2932283464566929,0.4457982195845698,0.2469291338582677
220,0.4478338278931751,0.27779527559055117,0.4478338278931751,0.0462992125984252,0.4478338278931751,0.2006299212598425,0.4478338278931751,0.6327559055118109,0.4478338278931751,0.2932283464566929,0.4478338278931751,0.2469291338582677
221,0.44986943620178044,0.27779527559055117,0.44986943620178044,0.0462992125984252,0.44986943620178044,0.2006299212598425,0.44986943620178044,0.6327559055118109,0.44986943620178044,0.2932283464566929,0.44986943620178044,0.2469291338582677
222,0.45190504451038577,0.27779527559055117,0.45190504451038577,0.0462992125984252,0.45190504451038577,0.2006299212598425,0.45190504451038577,0.6327559055118109,0.45190504451038577,0.2932283464566929,0.45190504451038577,0.2469291338582677
223,0.4539406528189911,0.27779527559055117,0.4539406528189911,0.0462992125984252,0.4539406528189911,0.2006299212598425,0.4539406528189911,0.6327559055118109,0.4539406528189911,0.2932283464566929,0.4539406528189911,0.2469291338582677
224,0.4559762611275965,0.27779527559055117,0.4559762611275965,0.0462992125984252,0.4559762611275965,0.2006299212598425,0.4559762611275965,0.6327559055118109,0.4559762611275965,0.2932283464566929,0.4559762611275965,0.2469291338582677
225,0.4580118694362018,0.27779527559055117,0.4580118694362018,0.0462992125984252,0.4580118694362018,0.2006299212598425,0.4580118694362018,0.6327559055118109,0.4580118694362018,0.2932283464566929,0.4580118694362018,0.2469291338582677
226,0.46004747774480714,0.27779527559055117,0.46004747774480714,0.0462992125984252,0.46004747774480714,0.2006299212598425,0.46004747774480714,0.6327559055118109,0.46004747774480714,0.2932283464566929,0.46004747774480714,0.2469291338582677
227,0.4620830860534125,0.27779527559055117,0.4620830860534125,0.0462992125984252,0.4620830860534125,0.2006299212598425,0.4620830860534125,0.6327559055118109,0.4620830860534125,0.2932283464566929,0.4620830860534125,0.2469291338582677
228,0.4641186943620178,0.27779527559055117,0.4641186943620178,0.0462992125984252,0.4641186943620178,0.2006299212598425,0.4641186943620178,0.6327559055118109,0.4641186943620178,0.2932283464566929,0.4641186943620178,0.2469291338582677
229,0.4661543026706232,0.27779527559055117,0.4661543026706232,0.0462992125984252,0.4661543026706232,0.2006299212598425,0.4661543026706232,0.6327559055118109,0.4661543026706232,0.2932283464566929,0.4661543026706232,0.2469291338582677
230,0.4681899109792285,0.27779527559055117,0.4681899109792285,0.0462992125984252,0.4681899109792285,0.2006299212598425,0.4681899109792285,0.6327559055118109,0.4681899109792285,0.2932283464566929,0.4681899109792285,0.2469291338582677
231,0.47022551928783385,0.27779527559055117,0.47022551928783385,0.0462992125984252,0.47022551928783385,0.2006299212598425,0.47022551928783385,0.6327559055118109,0.47022551928783385,0.2932283464566929,0.47022551928783385,0.2469291338582677
232,0.4722611275964392,0.27779527559055117,0.4722611275964392,0.0462992125984252,0.4722611275964392,0.2006299212598425,0.4722611275964392,0.6327559055118109,0.4722611275964392,0.2932283464566929,0.4722611275964392,0.2623622047244094
233,0.4742967359050445,0.27779527559055117,0.4742967359050445,0.0462992125984252,0.4742967359050445,0.2006299212598425,0.4742967359050445,0.6327559055118109,0.4742967359050445,0.2932283464566929,0.4742967359050445,0.2623622047244094
234,0.4763323442136499,0.27779527559055117,0.4763323442136499,0.0462992125984252,0.4763323442136499,0.2006299212598425,0.4763323442136499,0.6327559055118109,0.4763323442136499,0.2932283464566929,0.4763323442136499,0.2623622047244094
235,0.4783679525222552,0.27779527559055117,0.4783679525222552,0.0462992125984252,0.4783679525222552,0.2006299212598425,0.4783679525222552,0.6327559055118109,0.4783679525222552,0.2932283464566929,0.4783679525222552,0.2623622047244094
236,0.48040356083086055,0.27779527559055117,0.48040356083086055,0.0462992125984252,0.48040356083086055,0.2006299212598425,0.48040356083086055,0.6327559055118109,0.48040356083086055,0.2932283464566929,0.48040356083086055,0.2623622047244094
237,0.4824391691394659,0.27779527559055117,0.4824391691394659,0.0462992125984252,0.4824391691394659,0.2006299212598425,0.4824391691394659,0.6173228346456693,0.4824391691394659,0.2932283464566929,0.4824391691394659,0.27779527559055117
238,0.4844747774480712,0.27779527559055117,0.4844747774480712,0.0462992125984252,0.4844747774480712,0.21606299212598423,0.4844747774480712,0.6173228346456693,0.4844747774480712,0.2932283464566929,0.4844747774480712,0.27779527559055117
239,0.4865103857566766,0.27779527559055117,0.4865103857566766,0.0462992125984252,0.4865103857566766,0.21606299212598423,0.4865103857566766,0.6173228346456693,0.4865103857566766,0.2932283464566929,0.4865103857566766,0.27779527559055117
240,0.48854599406528193,0.2932283464566929,0.48854599406528193,0.0462992125984252,0.48854599406528193,0.21606299212598423,0.48854599406528193,0.6173228346456693,0.48854599406528193,0.2932283464566929,0.48854599406528193,0.2932283464566929
241,0.49058160237388726,0.2932283464566929,0.49058160237388726,0.0462992125984252,0.49058160237388726,0.23149606299212597,0.49058160237388726,0.6173228346456693,0.49058160237388726,0.2932283464566929,0.49058160237388726,0.2932283464566929
242,0.4926172106824926,0.2932283464566929,0.4926172106824926,0.0462992125984252,0.4926172106824926,0.23149606299212597,0.4926172106824926,0.6173228346456693,0.4926172106824926,0.2932283464566929,0.4926172106824926,0.30866141732283464
243,0.494652818991098,0.2932283464566929,0.494652818991098,0.0462992125984252,0.494652818991098,0.23149606299212597,0.494652818991098,0.6173228346456693,0.494652818991098,0.2932283464566929,0.494652818991098,0.30866141732283464
244,0.4966884272997033,0.2932283464566929,0.4966884272997033,0.061732283464566926,0.4966884272997033,0.23149606299212597,0.4966884272997033,0.6173228346456693,0.4966884272997033,0.2932283464566929,0.4966884272997033,0.32409448818897635
245,0.49872403560830864,0.30866141732283464,0.49872403560830864,0.061732283464566926,0.49872403560830864,0.2469291338582677,0.49872403560830864,0.6018897637795275,0.49872403560830864,0.2932283464566929,0.49872403560830864,0.3395275590551181
246,0.500759643916914,0.30866141732283464,0.500759643916914,0.061732283464566926,0.500759643916914,0.2469291338582677,0.500759643916914,0.6018897637795275,0.500759643916914,0.27779527559055117,0.500759643916914,0.3395275590551181
247,0.5027952522255194,0.30866141732283464,0.5027952522255194,0.061732283464566926,0.5027952522255194,0.2469291338582677,0.5027952522255194,0.6018897637795275,0.5027952522255194,0.2623622047244094,0.5027952522255194,0.3549606299212598
248,0.5048308605341246,0.32409448818897635,0.5048308605341246,0.061732283464566926,0.5048308605341246,0.2469291338582677,0.5048308605341246,0.5864566929133858,0.5048308605341246,0.2623622047244094,0.5048308605341246,0.3549606299212598
249,0.50686646884273,0.32409448818897635,0.50686646884273,0.07716535433070866,0.50686646884273,0.2469291338582677,0.50686646884273,0.5864566929133858,0.50686646884273,0.2623622047244094,0.50686646884273,0.3703937007874016
250,0.5089020771513353,0.32409448818897635,0.5089020771513353,0.07716535433070866,0.5089020771513353,0.2469291338582677,0.5089020771513353,0.5864566929133858,0.5089020771513353,0.2623622047244094,0.5089020771513353,0.3703937007874016
251,0.5109376854599407,0.32409448818897635,0.5109376854599407,0.07716535433070866,0.5109376854599407,0.2469291338582677,0.5109376854599407,0.5864566929133858,0.5109376854599407,0.2623622047244094,0.5109376854599407,0.3703937007874016
252,0.5129732937685461,0.3395275590551181,0.5129732937685461,0.07716535433070866,0.5129732937685461,0.2623622047244094,0.5129732937685461,0.5864566929133858,0.5129732937685461,0.2623622047244094,0.5129732937685461,0.3703937007874016
253,0.5150089020771513,0.3395275590551181,0.5150089020771513,0.07716535433070866,0.5150089020771513,0.2623622047244094,0.5150089020771513,0.5864566929133858,0.5150089020771513,0.2623622047244094,0.5150089020771513,0.3703937007874016
254,0.5170445103857567,0.3395275590551181,0.5170445103857567,0.07716535433070866,0.5170445103857567,0.2623622047244094,0.5170445103857567,0.5864566929133858,0.5170445103857567,0.2623622047244094,0.5170445103857567,0.3858267716535433
255,0.519080118694362,0.3549606299212598,0.519080118694362,0.07716535433070866,0.519080118694362,0.2623622047244094,0.519080118694362,0.5864566929133858,0.519080118694362,0.2623622047244094,0.519080118694362,0.3858267716535433
256,0.5211157270029674,0.3549606299212598,0.5211157270029674,0.07716535433070866,0.5211157270029674,0.27779527559055117,0.5211157270029674,0.5864566929133858,0.5211157270029674,0.2623622047244094,0.5211157270029674,0.3858267716535433
257,0.5231513353115728,0.3703937007874016,0.5231513353115728,0.07716535433070866,0.5231513353115728,0.27779527559055117,0.5231513353115728,0.5864566929133858,0.5231513353115728,0.2623622047244094,0.5231513353115728,0.3858267716535433
258,0.525186943620178,0.3703937007874016,0.525186943620178,0.07716535433070866,0.525186943620178,0.2932283464566929,0.525186943620178,0.5864566929133858,0.525186943620178,0.2623622047244094,0.525186943620178,0.401259842519685
259,0.5272225519287834,0.3858267716535433,0.5272225519287834,0.07716535433070866,0.5272225519287834,0.30866141732283464,0.5272225519287834,0.5864566929133858,0.5272225519287834,0.2623622047244094,0.5272225519287834,0.401259842519685
260,0.5292581602373887,0.3858267716535433,0.5292581602373887,0.07716535433070866,0.5292581602373887,0.32409448818897635,0.5292581602373887,0.5710236220472441,0.5292581602373887,0.2623622047244094,0.5292581602373887,0.401259842519685
261,0.5312937685459941,0.3858267716535433,0.5312937685459941,0.07716535433070866,0.5312937685459941,0.32409448818897635,0.5312937685459941,0.5555905511811023,0.5312937685459941,0.2623622047244094,0.5312937685459941,0.401259842519685
262,0.5333293768545995,0.401259842519685,0.5333293768545995,0.07716535433070866,0.5333293768545995,0.3395275590551181,0.5333293768545995,0.5555905511811023,0.5333293768545995,0.2623622047244094,0.5333293768545995,0.401259842519685
263,0.5353649851632047,0.401259842519685,0.5353649851632047,0.07716535433070866,0.5353649851632047,0.3395275590551181,0.5353649851632047,0.5401574803149606,0.5353649851632047,0.2623622047244094,0.5353649851632047,0.401259842519685
264,0.5374005934718101,0.401259842519685,0.5374005934718101,0.07716535433070866,0.5374005934718101,0.3549606299212598,0.5374005934718101,0.5247244094488188,0.5374005934718101,0.2623622047244094,0.5374005934718101,0.401259842519685
265,0.5394362017804154,0.401259842519685,0.5394362017804154,0.07716535433070866,0.5394362017804154,0.3549606299212598,0.5394362017804154,0.5092913385826772,0.5394362017804154,0.2623622047244094,0.5394362017804154,0.401259842519685
266,0.5414718100890208,0.401259842519685,0.5414718100890208,0.07716535433070866,0.5414718100890208,0.3549606299212598,0.5414718100890208,0.5092913385826772,0.5414718100890208,0.2469291338582677,0.5414718100890208,0.401259842519685
267,0.5435074183976262,0.401259842519685,0.5435074183976262,0.07716535433070866,0.5435074183976262,0.3703937007874016,0.5435074183976262,0.4938582677165354,0.5435074183976262,0.2469291338582677,0.5435074183976262,0.41669291338582676
268,0.5455430267062314,0.401259842519685,0.5455430267062314,0.061732283464566926,0.5455430267062314,0.3703937007874016,0.5455430267062314,0.4938582677165354,0.5455430267062314,0.23149606299212597,0.5455430267062314,0.41669291338582676
269,0.5475786350148368,0.401259842519685,0.5475786350148368,0.061732283464566926,0.5475786350148368,0.3703937007874016,0.5475786350148368,0.4784251968503937,0.5475786350148368,0.21606299212598423,0.5475786350148368,0.41669291338582676
270,0.5496142433234422,0.401259842519685,0.5496142433234422,0.061732283464566926,0.5496142433234422,0.3703937007874016,0.5496142433234422,0.4784251968503937,0.5496142433234422,0.21606299212598423,0.5496142433234422,0.41669291338582676
271,0.5516498516320475,0.41669291338582676,0.5516498516320475,0.061732283464566926,0.5516498516320475,0.3858267716535433,0.5516498516320475,0.4784251968503937,0.5516498516320475,0.21606299212598423,0.5516498516320475,0.41669291338582676
272,0.5536854599406529,0.41669291338582676,0.5536854599406529,0.061732283464566926,0.5536854599406529,0.3858267716535433,0.5536854599406529,0.4784251968503937,0.5536854599406529,0.21606299212598423,0.5536854599406529,0.41669291338582676
273,0.5557210682492582,0.41669291338582676,0.5557210682492582,0.061732283464566926,0.5557210682492582,0.3858267716535433,0.5557210682492582,0.4784251968503937,0.5557210682492582,0.21606299212598423,0.5557210682492582,0.43212598425196846
274,0.5577566765578635,0.41669291338582676,0.5577566765578635,0.061732283464566926,0.5577566765578635,0.3858267716535433,0.5577566765578635,0.46299212598425193,0.5577566765578635,0.21606299212598423,0.5577566765578635,0.43212598425196846
275,0.5597922848664689,0.41669291338582676,0.5597922848664689,0.061732283464566926,0.5597922848664689,0.3858267716535433,0.5597922848664689,0.46299212598425193,0.5597922848664689,0.21606299212598423,0.5597922848664689,0.43212598425196846
276,0.5618278931750742,0.41669291338582676,0.5618278931750742,0.061732283464566926,0.5618278931750742,0.3858267716535433,0.5618278931750742,0.46299212598425193,0.5618278931750742,0.21606299212598423,0.5618278931750742,0.4475590551181102
277,0.5638635014836796,0.41669291338582676,0.5638635014836796,0.061732283464566926,0.5638635014836796,0.3858267716535433,0.5638635014836796,0.46299212598425193,0.5638635014836796,0.21606299212598423,0.5638635014836796,0.46299212598425193
278,0.5658991097922849,0.41669291338582676,0.5658991097922849,0.061732283464566926,0.5658991097922849,0.3858267716535433,0.5658991097922849,0.46299212598425193,0.5658991097922849,0.21606299212598423,0.5658991097922849,0.4784251968503937
279,0.5679347181008902,0.41669291338582676,0.5679347181008902,0.061732283464566926,0.5679347181008902,0.3858267716535433,0.5679347181008902,0.46299212598425193,0.5679347181008902,0.21606299212598423,0.5679347181008902,0.4938582677165354
280,0.5699703264094956,0.41669291338582676,0.5699703264094956,0.061732283464566926,0.5699703264094956,0.3858267716535433,0.5699703264094956,0.46299212598425193,0.5699703264094956,0.21606299212598423,0.5699703264094956,0.5092913385826772
281,0.5720059347181009,0.41669291338582676,0.5720059347181009,0.061732283464566926,0.5720059347181009,0.3858267716535433,0.5720059347181009,0.46299212598425193,0.5720059347181009,0.21606299212598423,0.5720059347181009,0.5247244094488188
282,0.5740415430267063,0.41669291338582676,0.5740415430267063,0.07716535433070866,0.5740415430267063,0.3858267716535433,0.5740415430267063,0.46299212598425193,0.5740415430267063,0.21606299212598423,0.5740415430267063,0.5247244094488188
283,0.5760771513353116,0.41669291338582676,0.5760771513353116,0.07716535433070866,0.5760771513353116,0.3858267716535433,0.5760771513353116,0.46299212598425193,0.5760771513353116,0.21606299212598423,0.5760771513353116,0.5247244094488188
284,0.578112759643917,0.41669291338582676,0.578112759643917,0.07716535433070866,0.578112759643917,0.3858267716535433,0.578112759643917,0.46299212598425193,0.578112759643917,0.21606299212598423,0.578112759643917,0.5247244094488188
285,0.5801483679525223,0.41669291338582676,0.5801483679525223,0.07716535433070866,0.5801483679525223,0.3858267716535433,0.5801483679525223,0.46299212598425193,0.5801483679525223,0.21606299212598423,0.5801483679525223,0.5247244094488188
286,0.5821839762611276,0.41669291338582676,0.5821839762611276,0.07716535433070866,0.5821839762611276,0.3858267716535433,0.5821839762611276,0.46299212598425193,0.5821839762611276,0.21606299212598423,0.5821839762611276,0.5247244094488188
287,0.584219584569733,0.41669291338582676,0.584219584569733,0.07716535433070866,0.584219584569733,0.3858267716535433,0.584219584569733,0.46299212598425193,0.584219584569733,0.21606299212598423,0.584219584569733,0.5247244094488188
288,0.5862551928783383,0.41669291338582676,0.5862551928783383,0.07716535433070866,0.5862551928783383,0.3858267716535433,0.5862551928783383,0.4475590551181102,0.5862551928783383,0.21606299212598423,0.5862551928783383,0.5247244094488188
289,0.5882908011869437,0.41669291338582676,0.5882908011869437,0.07716535433070866,0.5882908011869437,0.3858267716535433,0.5882908011869437,0.4475590551181102,0.5882908011869437,0.2006299212598425,0.5882908011869437,0.5247244094488188
290,0.590326409495549,0.41669291338582676,0.590326409495549,0.07716535433070866,0.590326409495549,0.3858267716535433,0.590326409495549,0.43212598425196846,0.590326409495549,0.2006299212598425,0.590326409495549,0.5247244094488188
291,0.5923620178041543,0.401259842519685,0.5923620178041543,0.07716535433070866,0.5923620178041543,0.3858267716535433,0.5923620178041543,0.43212598425196846,0.5923620178041543,0.2006299212598425,0.5923620178041543,0.5247244094488188
292,0.5943976261127597,0.401259842519685,0.5943976261127597,0.07716535433070866,0.5943976261127597,0.3858267716535433,0.5943976261127597,0.41669291338582676,0.5943976261127597,0.2006299212598425,0.5943976261127597,0.5247244094488188
293,0.596433234421365,0.401259842519685,0.596433234421365,0.07716535433070866,0.596433234421365,0.3858267716535433,0.596433234421365,0.41669291338582676,0.596433234421365,0.2006299212598425,0.596433234421365,0.5247244094488188
294,0.5984688427299704,0.401259842519685,0.5984688427299704,0.07716535433070866,0.5984688427299704,0.3858267716535433,0.5984688427299704,0.401259842519685,0.5984688427299704,0.1851968503937008,0.5984688427299704,0.5247244094488188
295,0.6005044510385757,0.401259842519685,0.6005044510385757,0.07716535433070866,0.6005044510385757,0.3858267716535433,0.6005044510385757,0.41669291338582676,0.6005044510385757,0.1851968503937008,0.6005044510385757,0.5247244094488188
296,0.602540059347181,0.3858267716535433,0.602540059347181,0.07716535433070866,0.602540059347181,0.3858267716535433,0.602540059347181,0.41669291338582676,0.602540059347181,0.1851968503937008,0.602540059347181,0.5247244094488188
297,0.6045756676557864,0.3858267716535433,0.6045756676557864,0.07716535433070866,0.6045756676557864,0.3858267716535433,0.6045756676557864,0.41669291338582676,0.6045756676557864,0.2006299212598425,0.6045756676557864,0.5247244094488188
298,0.6066112759643917,0.3703937007874016,0.6066112759643917,0.07716535433070866,0.6066112759643917,0.3858267716535433,0.6066112759643917,0.43212598425196846,0.6066112759643917,0.2006299212598425,0.6066112759643917,0.5247244094488188
299,0.6086468842729971,0.3703937007874016,0.6086468842729971,0.07716535433070866,0.6086468842729971,0.3858267716535433,0.6086468842729971,0.43212598425196846,0.6086468842729971,0.2006299212598425,0.6086468842729971,0.5247244094488188
300,0.6106824925816025,0.3549606299212598,0.6106824925816025,0.07716535433070866,0.6106824925816025,0.3858267716535433,0.6106824925816025,0.43212598425196846,0.6106824925816025,0.2006299212598425,0.6106824925816025,0.5247244094488188
301,0.6127181008902077,0.3395275590551181,0.6127181008902077,0.061732283464566926,0.6127181008902077,0.3858267716535433,0.6127181008902077,0.43212598425196846,0.6127181008902077,0.2006299212598425,0.6127181008902077,0.5092913385826772
302,0.6147537091988131,0.30866141732283464,0.6147537091988131,0.061732283464566926,0.6147537091988131,0.3858267716535433,0.6147537091988131,0.4475590551181102,0.6147537091988131,0.21606299212598423,0.6147537091988131,0.4938582677165354
303,0.6167893175074184,0.32409448818897635,0.6167893175074184,0.07716535433070866,0.6167893175074184,0.3858267716535433,0.6167893175074184,0.4475590551181102,0.6167893175074184,0.21606299212598423,0.6167893175074184,0.4784251968503937
304,0.6188249258160238,0.32409448818897635,0.6188249258160238,0.07716535433070866,0.6188249258160238,0.3858267716535433,0.6188249258160238,0.46299212598425193,0.6188249258160238,0.21606299212598423,0.6188249258160238,0.46299212598425193
305,0.6208605341246292,0.32409448818897635,0.6208605341246292,0.07716535433070866,0.6208605341246292,0.3858267716535433,0.6208605341246292,0.46299212598425193,0.6208605341246292,0.21606299212598423,0.6208605341246292,0.4475590551181102
306,0.6228961424332344,0.32409448818897635,0.6228961424332344,0.07716535433070866,0.6228961424332344,0.3858267716535433,0.6228961424332344,0.46299212598425193,0.6228961424332344,0.21606299212598423,0.6228961424332344,0.43212598425196846
307,0.6249317507418398,0.32409448818897635,0.6249317507418398,0.07716535433070866,0.6249317507418398,0.3858267716535433,0.6249317507418398,0.4784251968503937,0.6249317507418398,0.21606299212598423,0.6249317507418398,0.43212598425196846
308,0.6269673590504451,0.32409448818897635,0.6269673590504451,0.07716535433070866,0.6269673590504451,0.3858267716535433,0.6269673590504451,0.4784251968503937,0.6269673590504451,0.21606299212598423,0.6269673590504451,0.41669291338582676
309,0.6290029673590505,0.32409448818897635,0.6290029673590505,0.07716535433070866,0.6290029673590505,0.3858267716535433,0.6290029673590505,0.4938582677165354,0.6290029673590505,0.21606299212598423,0.6290029673590505,0.41669291338582676
310,0.6310385756676559,0.32409448818897635,0.6310385756676559,0.07716535433070866,0.6310385756676559,0.3858267716535433,0.6310385756676559,0.4938582677165354,0.6310385756676559,0.21606299212598423,0.6310385756676559,0.41669291338582676
311,0.6330741839762611,0.32409448818897635,0.6330741839762611,0.07716535433070866,0.6330741839762611,0.3858267716535433,0.6330741839762611,0.4938582677165354,0.6330741839762611,0.21606299212598423,0.6330741839762611,0.401259842519685
312,0.6351097922848665,0.32409448818897635,0.6351097922848665,0.07716535433070866,0.6351097922848665,0.3858267716535433,0.6351097922848665,0.5092913385826772,0.6351097922848665,0.21606299212598423,0.6351097922848665,0.401259842519685
313,0.6371454005934718,0.32409448818897635,0.6371454005934718,0.07716535433070866,0.6371454005934718,0.3703937007874016,0.6371454005934718,0.5092913385826772,0.6371454005934718,0.21606299212598423,0.6371454005934718,0.401259842519685
314,0.6391810089020772,0.32409448818897635,0.6391810089020772,0.07716535433070866,0.6391810089020772,0.3703937007874016,0.6391810089020772,0.5092913385826772,0.6391810089020772,0.21606299212598423,0.6391810089020772,0.401259842519685
315,0.6412166172106826,0.32409448818897635,0.6412166172106826,0.07716535433070866,0.6412166172106826,0.3703937007874016,0.6412166172106826,0.5092913385826772,0.6412166172106826,0.21606299212598423,0.6412166172106826,0.3858267716535433
316,0.6432522255192878,0.32409448818897635,0.6432522255192878,0.07716535433070866,0.6432522255192878,0.3549606299212598,0.6432522255192878,0.5092913385826772,0.6432522255192878,0.21606299212598423,0.6432522255192878,0.3858267716535433
317,0.6452878338278932,0.32409448818897635,0.6452878338278932,0.07716535433070866,0.6452878338278932,0.3549606299212598,0.6452878338278932,0.5092913385826772,0.6452878338278932,0.21606299212598423,0.6452878338278932,0.3858267716535433
318,0.6473234421364985,0.32409448818897635,0.6473234421364985,0.07716535433070866,0.6473234421364985,0.3549606299212598,0.6473234421364985,0.5092913385826772,0.6473234421364985,0.21606299212598423,0.6473234421364985,0.3858267716535433
319,0.6493590504451039,0.32409448818897635,0.6493590504451039,0.07716535433070866,0.6493590504451039,0.3395275590551181,0.6493590504451039,0.5092913385826772,0.6493590504451039,0.21606299212598423,0.6493590504451039,0.3858267716535433
320,0.6513946587537093,0.32409448818897635,0.6513946587537093,0.07716535433070866,0.6513946587537093,0.3395275590551181,0.6513946587537093,0.5247244094488188,0.6513946587537093,0.21606299212598423,0.6513946587537093,0.3858267716535433
321,0.6534302670623146,0.32409448818897635,0.6534302670623146,0.07716535433070866,0.6534302670623146,0.3395275590551181,0.6534302670623146,0.5247244094488188,0.6534302670623146,0.21606299212598423,0.6534302670623146,0.3703937007874016
322,0.6554658753709199,0.2932283464566929,0.6554658753709199,0.07716535433070866,0.6554658753709199,0.3395275590551181,0.6554658753709199,0.5247244094488188,0.6554658753709199,0.21606299212598423,0.6554658753709199,0.3703937007874016
323,0.6575014836795252,0.27779527559055117,0.6575014836795252,0.07716535433070866,0.6575014836795252,0.32409448818897635,0.6575014836795252,0.5401574803149606,0.6575014836795252,0.21606299212598423,0.6575014836795252,0.3703937007874016
324,0.6595370919881306,0.2623622047244094,0.6595370919881306,0.061732283464566926,0.6595370919881306,0.32409448818897635,0.6595370919881306,0.5401574803149606,0.6595370919881306,0.2006299212598425,0.6595370919881306,0.3549606299212598
325,0.661572700296736,0.2469291338582677,0.661572700296736,0.061732283464566926,0.661572700296736,0.30866141732283464,0.661572700296736,0.5555905511811023,0.661572700296736,0.2006299212598425,0.661572700296736,0.3549606299212598
326,0.6636083086053413,0.23149606299212597,0.6636083086053413,0.061732283464566926,0.6636083086053413,0.30866141732283464,0.6636083086053413,0.5710236220472441,0.6636083086053413,0.2006299212598425,0.6636083086053413,0.3395275590551181
327,0.6656439169139466,0.21606299212598423,0.6656439169139466,0.07716535433070866,0.6656439169139466,0.2932283464566929,0.6656439169139466,0.5864566929133858,0.6656439169139466,0.2006299212598425,0.6656439169139466,0.3395275590551181
328,0.6676795252225519,0.21606299212598423,0.6676795252225519,0.07716535433070866,0.6676795252225519,0.2932283464566929,0.6676795252225519,0.5864566929133858,0.6676795252225519,0.1851968503937008,0.6676795252225519,0.3395275590551181
329,0.6697151335311573,0.21606299212598423,0.6697151335311573,0.0925984251968504,0.6697151335311573,0.2932283464566929,0.6697151335311573,0.6018897637795275,0.6697151335311573,0.1851968503937008,0.6697151335311573,0.32409448818897635
330,0.6717507418397627,0.21606299212598423,0.6717507418397627,0.0925984251968504,0.6717507418397627,0.27779527559055117,0.6717507418397627,0.6018897637795275,0.6717507418397627,0.1851968503937008,0.6717507418397627,0.32409448818897635
331,0.673786350148368,0.21606299212598423,0.673786350148368,0.0925984251968504,0.673786350148368,0.27779527559055117,0.673786350148368,0.6173228346456693,0.673786350148368,0.1851968503937008,0.673786350148368,0.32409448818897635
332,0.6758219584569733,0.21606299212598423,0.6758219584569733,0.0925984251968504,0.6758219584569733,0.27779527559055117,0.6758219584569733,0.6173228346456693,0.6758219584569733,0.1851968503937008,0.6758219584569733,0.30866141732283464
333,0.6778575667655786,0.21606299212598423,0.6778575667655786,0.0925984251968504,0.6778575667655786,0.27779527559055117,0.6778575667655786,0.6173228346456693,0.6778575667655786,0.1851968503937008,0.6778575667655786,0.30866141732283464
334,0.679893175074184,0.21606299212598423,0.679893175074184,0.0925984251968504,0.679893175074184,0.27779527559055117,0.679893175074184,0.6173228346456693,0.679893175074184,0.2006299212598425,0.679893175074184,0.30866141732283464
335,0.6819287833827894,0.21606299212598423,0.6819287833827894,0.0925984251968504,0.6819287833827894,0.27779527559055117,0.6819287833827894,0.6327559055118109,0.6819287833827894,0.2006299212598425,0.6819287833827894,0.30866141732283464
336,0.6839643916913947,0.23149606299212597,0.6839643916913947,0.0925984251968504,0.6839643916913947,0.2623622047244094,0.6839643916913947,0.6327559055118109,0.6839643916913947,0.2006299212598425,0.6839643916913947,0.30866141732283464
337,0.686,0.23149606299212597,0.686,0.0925984251968504,0.686,0.2623622047244094,0.686,0.6327559055118109,0.686,0.2006299212598425,0.686,0.30866141732283464
338,0.6880356083086053,0.23149606299212597,0.6880356083086053,0.0925984251968504,0.6880356083086053,0.2623622047244094,0.6880356083086053,0.6327559055118109,0.6880356083086053,0.2006299212598425,0.6880356083086053,0.30866141732283464
339,0.6900712166172107,0.23149606299212597,0.6900712166172107,0.0925984251968504,0.6900712166172107,0.2623622047244094,0.6900712166172107,0.6327559055118109,0.6900712166172107,0.2006299212598425,0.6900712166172107,0.30866141732283464
340,0.6921068249258161,0.23149606299212597,0.6921068249258161,0.0925984251968504,0.6921068249258161,0.2623622047244094,0.6921068249258161,0.6327559055118109,0.6921068249258161,0.2006299212598425,0.6921068249258161,0.30866141732283464
341,0.6941424332344214,0.23149606299212597,0.6941424332344214,0.0925984251968504,0.6941424332344214,0.2623622047244094,0.6941424332344214,0.6327559055118109,0.6941424332344214,0.2006299212598425,0.6941424332344214,0.30866141732283464
342,0.6961780415430268,0.23149606299212597,0.6961780415430268,0.0925984251968504,0.6961780415430268,0.2623622047244094,0.6961780415430268,0.6327559055118109,0.6961780415430268,0.2006299212598425,0.6961780415430268,0.30866141732283464
343,0.698213649851632,0.23149606299212597,0.698213649851632,0.0925984251968504,0.698213649851632,0.2623622047244094,0.698213649851632,0.6327559055118109,0.698213649851632,0.2006299212598425,0.698213649851632,0.30866141732283464
344,0.7002492581602374,0.23149606299212597,0.7002492581602374,0.0925984251968504,0.7002492581602374,0.2623622047244094,0.7002492581602374,0.6327559055118109,0.7002492581602374,0.2006299212598425,0.7002492581602374,0.30866141732283464
345,0.7022848664688428,0.23149606299212597,0.7022848664688428,0.0925984251968504,0.7022848664688428,0.2623622047244094,0.7022848664688428,0.6481889763779527,0.7022848664688428,0.2006299212598425,0.7022848664688428,0.2932283464566929
346,0.7043204747774481,0.23149606299212597,0.7043204747774481,0.0925984251968504,0.7043204747774481,0.2623622047244094,0.7043204747774481,0.6481889763779527,0.7043204747774481,0.21606299212598423,0.7043204747774481,0.2932283464566929
347,0.7063560830860535,0.23149606299212597,0.7063560830860535,0.0925984251968504,0.7063560830860535,0.2623622047244094,0.7063560830860535,0.6481889763779527,0.7063560830860535,0.21606299212598423,0.7063560830860535,0.27779527559055117
348,0.7083916913946587,0.23149606299212597,0.7083916913946587,0.07716535433070866,0.7083916913946587,0.2623622047244094,0.7083916913946587,0.6481889763779527,0.7083916913946587,0.21606299212598423,0.7083916913946587,0.27779527559055117
349,0.7104272997032641,0.23149606299212597,0.7104272997032641,0.07716535433070866,0.7104272997032641,0.2623622047244094,0.7104272997032641,0.6481889763779527,0.7104272997032641,0.21606299212598423,0.7104272997032641,0.2623622047244094
350,0.7124629080118695,0.23149606299212597,0.7124629080118695,0.07716535433070866,0.7124629080118695,0.2623622047244094,0.7124629080118695,0.6481889763779527,0.7124629080118695,0.21606299212598423,0.7124629080118695,0.2623622047244094
351,0.7144985163204748,0.23149606299212597,0.7144985163204748,0.07716535433070866,0.7144985163204748,0.2623622047244094,0.7144985163204748,0.6481889763779527,0.7144985163204748,0.21606299212598423,0.7144985163204748,0.2623622047244094
352,0.7165341246290802,0.23149606299212597,0.7165341246290802,0.07716535433070866,0.7165341246290802,0.2469291338582677,0.7165341246290802,0.6481889763779527,0.7165341246290802,0.21606299212598423,0.7165341246290802,0.2469291338582677
353,0.7185697329376854,0.23149606299212597,0.7185697329376854,0.07716535433070866,0.7185697329376854,0.2469291338582677,0.7185697329376854,0.6481889763779527,0.7185697329376854,0.21606299212598423,0.7185697329376854,0.2469291338582677
354,0.7206053412462908,0.23149606299212597,0.7206053412462908,0.07716535433070866,0.7206053412462908,0.2469291338582677,0.7206053412462908,0.6481889763779527,0.7206053412462908,0.21606299212598423,0.7206053412462908,0.2469291338582677
355,0.7226409495548962,0.23149606299212597,0.7226409495548962,0.07716535433070866,0.7226409495548962,0.2469291338582677,0.7226409495548962,0.6481889763779527,0.7226409495548962,0.21606299212598423,0.7226409495548962,0.2469291338582677
356,0.7246765578635015,0.23149606299212597,0.7246765578635015,0.07716535433070866,0.7246765578635015,0.23149606299212597,0.7246765578635015,0.6481889763779527,0.7246765578635015,0.21606299212598423,0.7246765578635015,0.2469291338582677
357,0.7267121661721069,0.23149606299212597,0.7267121661721069,0.07716535433070866,0.7267121661721069,0.23149606299212597,0.7267121661721069,0.6481889763779527,0.7267121661721069,0.23149606299212597,0.7267121661721069,0.2623622047244094
358,0.7287477744807122,0.23149606299212597,0.7287477744807122,0.07716535433070866,0.7287477744807122,0.23149606299212597,0.7287477744807122,0.6481889763779527,0.7287477744807122,0.23149606299212597,0.7287477744807122,0.2623622047244094
359,0.7307833827893175,0.2469291338582677,0.7307833827893175,0.07716535433070866,0.7307833827893175,0.23149606299212597,0.7307833827893175,0.6481889763779527,0.7307833827893175,0.2469291338582677,0.7307833827893175,0.2623622047244094
360,0.7328189910979229,0.2469291338582677,0.7328189910979229,0.07716535433070866,0.7328189910979229,0.23149606299212597,0.7328189910979229,0.6481889763779527,0.7328189910979229,0.2469291338582677,0.7328189910979229,0.2623622047244094
361,0.7348545994065282,0.2469291338582677,0.7348545994065282,0.07716535433070866,0.7348545994065282,0.23149606299212597,0.7348545994065282,0.6481889763779527,0.7348545994065282,0.2469291338582677,0.7348545994065282,0.2623622047244094
362,0.7368902077151336,0.2469291338582677,0.7368902077151336,0.07716535433070866,0.7368902077151336,0.23149606299212597,0.7368902077151336,0.6481889763779527,0.7368902077151336,0.2469291338582677,0.7368902077151336,0.2623622047244094
363,0.7389258160237389,0.2469291338582677,0.7389258160237389,0.07716535433070866,0.7389258160237389,0.23149606299212597,0.7389258160237389,0.6481889763779527,0.7389258160237389,0.2469291338582677,0.7389258160237389,0.2623622047244094
364,0.7409614243323442,0.2469291338582677,0.7409614243323442,0.07716535433070866,0.7409614243323442,0.23149606299212597,0.7409614243323442,0.6481889763779527,0.7409614243323442,0.2469291338582677,0.7409614243323442,0.2623622047244094
365,0.7429970326409496,0.2469291338582677,0.7429970326409496,0.07716535433070866,0.7429970326409496,0.23149606299212597,0.7429970326409496,0.6481889763779527,0.7429970326409496,0.2469291338582677,0.7429970326409496,0.2623622047244094
366,0.7450326409495549,0.2469291338582677,0.7450326409495549,0.07716535433070866,0.7450326409495549,0.23149606299212597,0.7450326409495549,0.6481889763779527,0.7450326409495549,0.2469291338582677,0.7450326409495549,0.2623622047244094
367,0.7470682492581603,0.2469291338582677,0.7470682492581603,0.07716535433070866,0.7470682492581603,0.23149606299212597,0.7470682492581603,0.6327559055118109,0.7470682492581603,0.2469291338582677,0.7470682492581603,0.2623622047244094
368,0.7491038575667656,0.2469291338582677,0.7491038575667656,0.07716535433070866,0.7491038575667656,0.23149606299212597,0.7491038575667656,0.6327559055118109,0.7491038575667656,0.2469291338582677,0.7491038575667656,0.2623622047244094
369,0.751139465875371,0.2469291338582677,0.751139465875371,0.07716535433070866,0.751139465875371,0.23149606299212597,0.751139465875371,0.6327559055118109,0.751139465875371,0.2469291338582677,0.751139465875371,0.2623622047244094
370,0.7531750741839763,0.2469291338582677,0.7531750741839763,0.07716535433070866,0.7531750741839763,0.23149606299212597,0.7531750741839763,0.6327559055118109,0.7531750741839763,0.2469291338582677,0.7531750741839763,0.2623622047244094
371,0.7552106824925816,0.2469291338582677,0.7552106824925816,0.07716535433070866,0.7552106824925816,0.23149606299212597,0.7552106824925816,0.6173228346456693,0.7552106824925816,0.2469291338582677,0.7552106824925816,0.2623622047244094
372,0.757246290801187,0.2469291338582677,0.757246290801187,0.07716535433070866,0.757246290801187,0.23149606299212597,0.757246290801187,0.6018897637795275,0.757246290801187,0.2469291338582677,0.757246290801187,0.2623622047244094
373,0.7592818991097923,0.2469291338582677,0.7592818991097923,0.07716535433070866,0.7592818991097923,0.23149606299212597,0.7592818991097923,0.5710236220472441,0.7592818991097923,0.2469291338582677,0.7592818991097923,0.2623622047244094
374,0.7613175074183977,0.2469291338582677,0.7613175074183977,0.07716535433070866,0.7613175074183977,0.23149606299212597,0.7613175074183977,0.5555905511811023,0.7613175074183977,0.2469291338582677,0.7613175074183977,0.2623622047244094
375,0.763353115727003,0.2469291338582677,0.763353115727003,0.07716535433070866,0.763353115727003,0.23149606299212597,0.763353115727003,0.5401574803149606,0.763353115727003,0.2469291338582677,0.763353115727003,0.2623622047244094
376,0.7653887240356083,0.2469291338582677,0.7653887240356083,0.07716535433070866,0.7653887240356083,0.23149606299212597,0.7653887240356083,0.5247244094488188,0.7653887240356083,0.2469291338582677,0.7653887240356083,0.2623622047244094
377,0.7674243323442137,0.2469291338582677,0.7674243323442137,0.07716535433070866,0.7674243323442137,0.23149606299212597,0.7674243323442137,0.5247244094488188,0.7674243323442137,0.2469291338582677,0.7674243323442137,0.2623622047244094
378,0.7694599406528191,0.2469291338582677,0.7694599406528191,0.07716535433070866,0.7694599406528191,0.23149606299212597,0.7694599406528191,0.5092913385826772,0.7694599406528191,0.2469291338582677,0.7694599406528191,0.2469291338582677
379,0.7714955489614244,0.2469291338582677,0.7714955489614244,0.07716535433070866,0.7714955489614244,0.23149606299212597,0.7714955489614244,0.5092913385826772,0.7714955489614244,0.2469291338582677,0.7714955489614244,0.2469291338582677
380,0.7735311572700297,0.23149606299212597,0.7735311572700297,0.061732283464566926,0.7735311572700297,0.23149606299212597,0.7735311572700297,0.5247244094488188,0.7735311572700297,0.23149606299212597,0.7735311572700297,0.2469291338582677
381,0.775566765578635,0.23149606299212597,0.775566765578635,0.061732283464566926,0.775566765578635,0.23149606299212597,0.775566765578635,0.5401574803149606,0.775566765578635,0.21606299212598423,0.775566765578635,0.2623622047244094
382,0.7776023738872404,0.23149606299212597,0.7776023738872404,0.07716535433070866,0.7776023738872404,0.23149606299212597,0.7776023738872404,0.5401574803149606,0.7776023738872404,0.21606299212598423,0.7776023738872404,0.2623622047244094
383,0.7796379821958458,0.21606299212598423,0.7796379821958458,0.07716535433070866,0.7796379821958458,0.23149606299212597,0.7796379821958458,0.5555905511811023,0.7796379821958458,0.2006299212598425,0.7796379821958458,0.2623622047244094
384,0.7816735905044511,0.21606299212598423,0.7816735905044511,0.07716535433070866,0.7816735905044511,0.23149606299212597,0.7816735905044511,0.5710236220472441,0.7816735905044511,0.2006299212598425,0.7816735905044511,0.27779527559055117
385,0.7837091988130565,0.21606299212598423,0.7837091988130565,0.0925984251968504,0.7837091988130565,0.23149606299212597,0.7837091988130565,0.5710236220472441,0.7837091988130565,0.2006299212598425,0.7837091988130565,0.27779527559055117
386,0.7857448071216617,0.21606299212598423,0.7857448071216617,0.0925984251968504,0.7857448071216617,0.23149606299212597,0.7857448071216617,0.5710236220472441,0.7857448071216617,0.2006299212598425,0.7857448071216617,0.27779527559055117
387,0.7877804154302671,0.21606299212598423,0.7877804154302671,0.0925984251968504,0.7877804154302671,0.23149606299212597,0.7877804154302671,0.5864566929133858,0.7877804154302671,0.1851968503937008,0.7877804154302671,0.27779527559055117
388,0.7898160237388725,0.21606299212598423,0.7898160237388725,0.0925984251968504,0.7898160237388725,0.23149606299212597,0.7898160237388725,0.5864566929133858,0.7898160237388725,0.1851968503937008,0.7898160237388725,0.27779527559055117
389,0.7918516320474778,0.21606299212598423,0.7918516320474778,0.0925984251968504,0.7918516320474778,0.23149606299212597,0.7918516320474778,0.5864566929133858,0.7918516320474778,0.1851968503937008,0.7918516320474778,0.27779527559055117
390,0.7938872403560832,0.21606299212598423,0.7938872403560832,0.0925984251968504,0.7938872403560832,0.23149606299212597,0.7938872403560832,0.5864566929133858,0.7938872403560832,0.2006299212598425,0.7938872403560832,0.27779527559055117
391,0.7959228486646884,0.21606299212598423,0.7959228486646884,0.0925984251968504,0.7959228486646884,0.23149606299212597,0.7959228486646884,0.6018897637795275,0.7959228486646884,0.2006299212598425,0.7959228486646884,0.27779527559055117
392,0.7979584569732938,0.21606299212598423,0.7979584569732938,0.0925984251968504,0.7979584569732938,0.23149606299212597,0.7979584569732938,0.6018897637795275,0.7979584569732938,0.2006299212598425,0.7979584569732938,0.27779527559055117
393,0.7999940652818992,0.21606299212598423,0.7999940652818992,0.0925984251968504,0.7999940652818992,0.23149606299212597,0.7999940652818992,0.6173228346456693,0.7999940652818992,0.2006299212598425,0.7999940652818992,0.27779527559055117
394,0.8020296735905045,0.21606299212598423,0.8020296735905045,0.0925984251968504,0.8020296735905045,0.23149606299212597,0.8020296735905045,0.6173228346456693,0.8020296735905045,0.2006299212598425,0.8020296735905045,0.27779527559055117
395,0.8040652818991099,0.21606299212598423,0.8040652818991099,0.0925984251968504,0.8040652818991099,0.23149606299212597,0.8040652818991099,0.6327559055118109,0.8040652818991099,0.2006299212598425,0.8040652818991099,0.27779527559055117
396,0.8061008902077151,0.21606299212598423,0.8061008902077151,0.0925984251968504,0.8061008902077151,0.23149606299212597,0.8061008902077151,0.6327559055118109,0.8061008902077151,0.2006299212598425,0.8061008902077151,0.27779527559055117
397,0.8081364985163205,0.21606299212598423,0.8081364985163205,0.0925984251968504,0.8081364985163205,0.23149606299212597,0.8081364985163205,0.6327559055118109,0.8081364985163205,0.2006299212598425,0.8081364985163205,0.27779527559055117
398,0.8101721068249259,0.21606299212598423,0.8101721068249259,0.0925984251968504,0.8101721068249259,0.23149606299212597,0.8101721068249259,0.6327559055118109,0.8101721068249259,0.2006299212598425,0.8101721068249259,0.27779527559055117
399,0.8122077151335312,0.21606299212598423,0.8122077151335312,0.0925984251968504,0.8122077151335312,0.23149606299212597,0.8122077151335312,0.6327559055118109,0.8122077151335312,0.2006299212598425,0.8122077151335312,0.27779527559055117
400,0.8142433234421366,0.21606299212598423,0.8142433234421366,0.0925984251968504,0.8142433234421366,0.21606299212598423,0.8142433234421366,0.6327559055118109,0.8142433234421366,0.2006299212598425,0.8142433234421366,0.27779527559055117
401,0.8162789317507418,0.21606299212598423,0.8162789317507418,0.0925984251968504,0.8162789317507418,0.21606299212598423,0.8162789317507418,0.6327559055118109,0.8162789317507418,0.2006299212598425,0.8162789317507418,0.27779527559055117
402,0.8183145400593472,0.21606299212598423,0.8183145400593472,0.0925984251968504,0.8183145400593472,0.21606299212598423,0.8183145400593472,0.6327559055118109,0.8183145400593472,0.2006299212598425,0.8183145400593472,0.27779527559055117
403,0.8203501483679526,0.21606299212598423,0.8203501483679526,0.0925984251968504,0.8203501483679526,0.23149606299212597,0.8203501483679526,0.6327559055118109,0.8203501483679526,0.2006299212598425,0.8203501483679526,0.2623622047244094
404,0.8223857566765579,0.21606299212598423,0.8223857566765579,0.07716535433070866,0.8223857566765579,0.23149606299212597,0.8223857566765579,0.6327559055118109,0.8223857566765579,0.2006299212598425,0.8223857566765579,0.2623622047244094
405,0.8244213649851633,0.21606299212598423,0.8244213649851633,0.07716535433070866,0.8244213649851633,0.23149606299212597,0.8244213649851633,0.6327559055118109,0.8244213649851633,0.2006299212598425,0.8244213649851633,0.2623622047244094
406,0.8264569732937685,0.21606299212598423,0.8264569732937685,0.061732283464566926,0.8264569732937685,0.23149606299212597,0.8264569732937685,0.6327559055118109,0.8264569732937685,0.2006299212598425,0.8264569732937685,0.2623622047244094
407,0.8284925816023739,0.21606299212598423,0.8284925816023739,0.061732283464566926,0.8284925816023739,0.23149606299212597,0.8284925816023739,0.6327559055118109,0.8284925816023739,0.2006299212598425,0.8284925816023739,0.2623622047244094
408,0.8305281899109793,0.21606299212598423,0.8305281899109793,0.061732283464566926,0.8305281899109793,0.23149606299212597,0.8305281899109793,0.6327559055118109,0.8305281899109793,0.2006299212598425,0.8305281899109793,0.2469291338582677
409,0.8325637982195846,0.21606299212598423,0.8325637982195846,0.061732283464566926,0.8325637982195846,0.23149606299212597,0.8325637982195846,0.6327559055118109,0.8325637982195846,0.2006299212598425,0.8325637982195846,0.2469291338582677
410,0.83459940652819,0.21606299212598423,0.83459940652819,0.061732283464566926,0.83459940652819,0.23149606299212597,0.83459940652819,0.6327559055118109,0.83459940652819,0.2006299212598425,0.83459940652819,0.2469291338582677
411,0.8366350148367953,0.21606299212598423,0.8366350148367953,0.061732283464566926,0.8366350148367953,0.23149606299212597,0.8366350148367953,0.6327559055118109,0.8366350148367953,0.2006299212598425,0.8366350148367953,0.2469291338582677
412,0.8386706231454006,0.21606299212598423,0.8386706231454006,0.061732283464566926,0.8386706231454006,0.23149606299212597,0.8386706231454006,0.6327559055118109,0.8386706231454006,0.2006299212598425,0.8386706231454006,0.2469291338582677
413,0.840706231454006,0.21606299212598423,0.840706231454006,0.061732283464566926,0.840706231454006,0.23149606299212597,0.840706231454006,0.6327559055118109,0.840706231454006,0.2006299212598425,0.840706231454006,0.2469291338582677
414,0.8427418397626113,0.21606299212598423,0.8427418397626113,0.061732283464566926,0.8427418397626113,0.23149606299212597,0.8427418397626113,0.6327559055118109,0.8427418397626113,0.2006299212598425,0.8427418397626113,0.2469291338582677
415,0.8447774480712167,0.21606299212598423,0.8447774480712167,0.061732283464566926,0.8447774480712167,0.23149606299212597,0.8447774480712167,0.6327559055118109,0.8447774480712167,0.2006299212598425,0.8447774480712167,0.2469291338582677
416,0.846813056379822,0.21606299212598423,0.846813056379822,0.061732283464566926,0.846813056379822,0.23149606299212597,0.846813056379822,0.6327559055118109,0.846813056379822,0.2006299212598425,0.846813056379822,0.2469291338582677
417,0.8488486646884273,0.21606299212598423,0.8488486646884273,0.061732283464566926,0.8488486646884273,0.23149606299212597,0.8488486646884273,0.6327559055118109,0.8488486646884273,0.2006299212598425,0.8488486646884273,0.2469291338582677
418,0.8508842729970327,0.21606299212598423,0.8508842729970327,0.061732283464566926,0.8508842729970327,0.23149606299212597,0.8508842729970327,0.6327559055118109,0.8508842729970327,0.2006299212598425,0.8508842729970327,0.2469291338582677
419,0.852919881305638,0.21606299212598423,0.852919881305638,0.061732283464566926,0.852919881305638,0.23149606299212597,0.852919881305638,0.6327559055118109,0.852919881305638,0.2006299212598425,0.852919881305638,0.2469291338582677
420,0.8549554896142434,0.21606299212598423,0.8549554896142434,0.061732283464566926,0.8549554896142434,0.23149606299212597,0.8549554896142434,0.6327559055118109,0.8549554896142434,0.2006299212598425,0.8549554896142434,0.2469291338582677
421,0.8569910979228487,0.21606299212598423,0.8569910979228487,0.061732283464566926,0.8569910979228487,0.23149606299212597,0.8569910979228487,0.6327559055118109,0.8569910979228487,0.2006299212598425,0.8569910979228487,0.2469291338582677
422,0.859026706231454,0.21606299212598423,0.859026706231454,0.061732283464566926,0.859026706231454,0.23149606299212597,0.859026706231454,0.6327559055118109,0.859026706231454,0.2006299212598425,0.859026706231454,0.2469291338582677
423,0.8610623145400594,0.21606299212598423,0.8610623145400594,0.061732283464566926,0.8610623145400594,0.21606299212598423,0.8610623145400594,0.6327559055118109,0.8610623145400594,0.2006299212598425,0.8610623145400594,0.2469291338582677
424,0.8630979228486647,0.21606299212598423,0.8630979228486647,0.061732283464566926,0.8630979228486647,0.2006299212598425,0.8630979228486647,0.6327559055118109,0.8630979228486647,0.2006299212598425,0.8630979228486647,0.2469291338582677
425,0.8651335311572701,0.21606299212598423,0.8651335311572701,0.061732283464566926,0.8651335311572701,0.1851968503937008,0.8651335311572701,0.6327559055118109,0.8651335311572701,0.21606299212598423,0.8651335311572701,0.2469291338582677
426,0.8671691394658754,0.21606299212598423,0.8671691394658754,0.061732283464566926,0.8671691394658754,0.15433070866141732,0.8671691394658754,0.6327559055118109,0.8671691394658754,0.21606299212598423,0.8671691394658754,0.2469291338582677
427,0.8692047477744808,0.21606299212598423,0.8692047477744808,0.061732283464566926,0.8692047477744808,0.10803149606299212,0.8692047477744808,0.6327559055118109,0.8692047477744808,0.21606299212598423,0.8692047477744808,0.2469291338582677
428,0.8712403560830861,0.21606299212598423,0.8712403560830861,0.061732283464566926,0.8712403560830861,0.12346456692913385,0.8712403560830861,0.6327559055118109,0.8712403560830861,0.21606299212598423,0.8712403560830861,0.2469291338582677
429,0.8732759643916914,0.21606299212598423,0.8732759643916914,0.061732283464566926,0.8732759643916914,0.15433070866141732,0.8732759643916914,0.6327559055118109,0.8732759643916914,0.21606299212598423,0.8732759643916914,0.2469291338582677
430,0.8753115727002968,0.21606299212598423,0.8753115727002968,0.061732283464566926,0.8753115727002968,0.16976377952755906,0.8753115727002968,0.6327559055118109,0.8753115727002968,0.21606299212598423,0.8753115727002968,0.2469291338582677
431,0.8773471810089021,0.21606299212598423,0.8773471810089021,0.061732283464566926,0.8773471810089021,0.1851968503937008,0.8773471810089021,0.6327559055118109,0.8773471810089021,0.21606299212598423,0.8773471810089021,0.2469291338582677
432,0.8793827893175075,0.21606299212598423,0.8793827893175075,0.0462992125984252,0.8793827893175075,0.2006299212598425,0.8793827893175075,0.6327559055118109,0.8793827893175075,0.21606299212598423,0.8793827893175075,0.2469291338582677
433,0.8814183976261128,0.21606299212598423,0.8814183976261128,0.0462992125984252,0.8814183976261128,0.2006299212598425,0.8814183976261128,0.6327559055118109,0.8814183976261128,0.21606299212598423,0.8814183976261128,0.2469291338582677
434,0.8834540059347181,0.21606299212598423,0.8834540059347181,0.0462992125984252,0.8834540059347181,0.2006299212598425,0.8834540059347181,0.6327559055118109,0.8834540059347181,0.21606299212598423,0.8834540059347181,0.23149606299212597
435,0.8854896142433235,0.21606299212598423,0.8854896142433235,0.0462992125984252,0.8854896142433235,0.2006299212598425,0.8854896142433235,0.6327559055118109,0.8854896142433235,0.21606299212598423,0.8854896142433235,0.23149606299212597
436,0.8875252225519288,0.21606299212598423,0.8875252225519288,0.0462992125984252,0.8875252225519288,0.2006299212598425,0.8875252225519288,0.6327559055118109,0.8875252225519288,0.21606299212598423,0.8875252225519288,0.23149606299212597
437,0.8895608308605342,0.21606299212598423,0.8895608308605342,0.0462992125984252,0.8895608308605342,0.2006299212598425,0.8895608308605342,0.6327559055118109,0.8895608308605342,0.21606299212598423,0.8895608308605342,0.21606299212598423
438,0.8915964391691396,0.21606299212598423,0.8915964391691396,0.0462992125984252,0.8915964391691396,0.21606299212598423,0.8915964391691396,0.6327559055118109,0.8915964391691396,0.21606299212598423,0.8915964391691396,0.21606299212598423
439,0.8936320474777448,0.21606299212598423,0.8936320474777448,0.0462992125984252,0.8936320474777448,0.21606299212598423,0.8936320474777448,0.6327559055118109,0.8936320474777448,0.21606299212598423,0.8936320474777448,0.23149606299212597
440,0.8956676557863502,0.21606299212598423,0.8956676557863502,0.0462992125984252,0.8956676557863502,0.21606299212598423,0.8956676557863502,0.6481889763779527,0.8956676557863502,0.21606299212598423,0.8956676557863502,0.23149606299212597
441,0.8977032640949555,0.21606299212598423,0.8977032640949555,0.0462992125984252,0.8977032640949555,0.21606299212598423,0.8977032640949555,0.6481889763779527,0.8977032640949555,0.21606299212598423,0.8977032640949555,0.23149606299212597
442,0.8997388724035609,0.21606299212598423,0.8997388724035609,0.0462992125984252,0.8997388724035609,0.21606299212598423,0.8997388724035609,0.6481889763779527,0.8997388724035609,0.21606299212598423,0.8997388724035609,0.23149606299212597
443,0.9017744807121663,0.21606299212598423,0.9017744807121663,0.0462992125984252,0.9017744807121663,0.21606299212598423,0.9017744807121663,0.6481889763779527,0.9017744807121663,0.21606299212598423,0.9017744807121663,0.23149606299212597
444,0.9038100890207715,0.21606299212598423,0.9038100890207715,0.0462992125984252,0.9038100890207715,0.21606299212598423,0.9038100890207715,0.6481889763779527,0.9038100890207715,0.21606299212598423,0.9038100890207715,0.23149606299212597
445,0.9058456973293769,0.21606299212598423,0.9058456973293769,0.0462992125984252,0.9058456973293769,0.21606299212598423,0.9058456973293769,0.6481889763779527,0.9058456973293769,0.21606299212598423,0.9058456973293769,0.23149606299212597
446,0.9078813056379822,0.21606299212598423,0.9078813056379822,0.0462992125984252,0.9078813056379822,0.21606299212598423,0.9078813056379822,0.6481889763779527,0.9078813056379822,0.21606299212598423,0.9078813056379822,0.23149606299212597
447,0.9099169139465876,0.21606299212598423,0.9099169139465876,0.0462992125984252,0.9099169139465876,0.21606299212598423,0.9099169139465876,0.6481889763779527,0.9099169139465876,0.21606299212598423,0.9099169139465876,0.23149606299212597
448,0.911952522255193,0.21606299212598423,0.911952522255193,0.061732283464566926,0.911952522255193,0.21606299212598423,0.911952522255193,0.6481889763779527,0.911952522255193,0.21606299212598423,0.911952522255193,0.23149606299212597
449,0.9139881305637982,0.21606299212598423,0.9139881305637982,0.061732283464566926,0.9139881305637982,0.21606299212598423,0.9139881305637982,0.6481889763779527,0.9139881305637982,0.21606299212598423,0.9139881305637982,0.23149606299212597
450,0.9160237388724036,0.21606299212598423,0.9160237388724036,0.061732283464566926,0.9160237388724036,0.21606299212598423,0.9160237388724036,0.6481889763779527,0.9160237388724036,0.21606299212598423,0.9160237388724036,0.23149606299212597
451,0.9180593471810089,0.21606299212598423,0.9180593471810089,0.061732283464566926,0.9180593471810089,0.21606299212598423,0.9180593471810089,0.6481889763779527,0.9180593471810089,0.21606299212598423,0.9180593471810089,0.23149606299212597
452,0.9200949554896143,0.21606299212598423,0.9200949554896143,0.061732283464566926,0.9200949554896143,0.21606299212598423,0.9200949554896143,0.6481889763779527,0.9200949554896143,0.21606299212598423,0.9200949554896143,0.23149606299212597
453,0.9221305637982197,0.21606299212598423,0.9221305637982197,0.061732283464566926,0.9221305637982197,0.21606299212598423,0.9221305637982197,0.6481889763779527,0.9221305637982197,0.21606299212598423,0.9221305637982197,0.23149606299212597
454,0.924166172106825,0.21606299212598423,0.924166172106825,0.061732283464566926,0.924166172106825,0.21606299212598423,0.924166172106825,0.6481889763779527,0.924166172106825,0.2006299212598425,0.924166172106825,0.23149606299212597
455,0.9262017804154303,0.21606299212598423,0.9262017804154303,0.061732283464566926,0.9262017804154303,0.21606299212598423,0.9262017804154303,0.6481889763779527,0.9262017804154303,0.2006299212598425,0.9262017804154303,0.23149606299212597
456,0.9282373887240356,0.21606299212598423,0.9282373887240356,0.061732283464566926,0.9282373887240356,0.21606299212598423,0.9282373887240356,0.6481889763779527,0.9282373887240356,0.2006299212598425,0.9282373887240356,0.23149606299212597
457,0.930272997032641,0.21606299212598423,0.930272997032641,0.061732283464566926,0.930272997032641,0.21606299212598423,0.930272997032641,0.6481889763779527,0.930272997032641,0.2006299212598425,0.930272997032641,0.23149606299212597
458,0.9323086053412464,0.21606299212598423,0.9323086053412464,0.061732283464566926,0.9323086053412464,0.2006299212598425,0.9323086053412464,0.6481889763779527,0.9323086053412464,0.2006299212598425,0.9323086053412464,0.23149606299212597
459,0.9343442136498517,0.21606299212598423,0.9343442136498517,0.061732283464566926,0.9343442136498517,0.15433070866141732,0.9343442136498517,0.6481889763779527,0.9343442136498517,0.2006299212598425,0.9343442136498517,0.23149606299212597
460,0.936379821958457,0.21606299212598423,0.936379821958457,0.061732283464566926,0.936379821958457,0.10803149606299212,0.936379821958457,0.6636220472440945,0.936379821958457,0.2006299212598425,0.936379821958457,0.23149606299212597
461,0.9384154302670623,0.21606299212598423,0.9384154302670623,0.061732283464566926,0.9384154302670623,0.0925984251968504,0.9384154302670623,0.6636220472440945,0.9384154302670623,0.2006299212598425,0.9384154302670623,0.23149606299212597
462,0.9404510385756677,0.21606299212598423,0.9404510385756677,0.061732283464566926,0.9404510385756677,0.07716535433070866,0.9404510385756677,0.6636220472440945,0.9404510385756677,0.2006299212598425,0.9404510385756677,0.23149606299212597
463,0.9424866468842731,0.21606299212598423,0.9424866468842731,0.061732283464566926,0.9424866468842731,0.07716535433070866,0.9424866468842731,0.6636220472440945,0.9424866468842731,0.2006299212598425,0.9424866468842731,0.21606299212598423
464,0.9445222551928784,0.21606299212598423,0.9445222551928784,0.061732283464566926,0.9445222551928784,0.07716535433070866,0.9445222551928784,0.6636220472440945,0.9445222551928784,0.2006299212598425,0.9445222551928784,0.21606299212598423
465,0.9465578635014837,0.21606299212598423,0.9465578635014837,0.061732283464566926,0.9465578635014837,0.07716535433070866,0.9465578635014837,0.6636220472440945,0.9465578635014837,0.2006299212598425,0.9465578635014837,0.21606299212598423
466,0.948593471810089,0.21606299212598423,0.948593471810089,0.061732283464566926,0.948593471810089,0.07716535433070866,0.948593471810089,0.6636220472440945,0.948593471810089,0.2006299212598425,0.948593471810089,0.21606299212598423
467,0.9506290801186944,0.21606299212598423,0.9506290801186944,0.061732283464566926,0.9506290801186944,0.07716535433070866,0.9506290801186944,0.6790551181102362,0.9506290801186944,0.2006299212598425,0.9506290801186944,0.21606299212598423
468,0.9526646884272998,0.21606299212598423,0.9526646884272998,0.07716535433070866,0.9526646884272998,0.07716535433070866,0.9526646884272998,0.6790551181102362,0.9526646884272998,0.2006299212598425,0.9526646884272998,0.21606299212598423
469,0.9547002967359051,0.21606299212598423,0.9547002967359051,0.07716535433070866,0.9547002967359051,0.07716535433070866,0.9547002967359051,0.6790551181102362,0.9547002967359051,0.2006299212598425,0.9547002967359051,0.21606299212598423
470,0.9567359050445104,0.2006299212598425,0.9567359050445104,0.07716535433070866,0.9567359050445104,0.0925984251968504,0.9567359050445104,0.6790551181102362,0.9567359050445104,0.2006299212598425,0.9567359050445104,0.23149606299212597
471,0.9587715133531157,0.2006299212598425,0.9587715133531157,0.07716535433070866,0.9587715133531157,0.10803149606299212,0.9587715133531157,0.6944881889763779,0.9587715133531157,0.2006299212598425,0.9587715133531157,0.23149606299212597
472,0.9608071216617211,0.1851968503937008,0.9608071216617211,0.0925984251968504,0.9608071216617211,0.15433070866141732,0.9608071216617211,0.6944881889763779,0.9608071216617211,0.21606299212598423,0.9608071216617211,0.23149606299212597
473,0.9628427299703265,0.1851968503937008,0.9628427299703265,0.0925984251968504,0.9628427299703265,0.1851968503937008,0.9628427299703265,0.6944881889763779,0.9628427299703265,0.21606299212598423,0.9628427299703265,0.23149606299212597
474,0.9648783382789318,0.16976377952755906,0.9648783382789318,0.0925984251968504,0.9648783382789318,0.1851968503937008,0.9648783382789318,0.6944881889763779,0.9648783382789318,0.21606299212598423,0.9648783382789318,0.23149606299212597
475,0.9669139465875372,0.15433070866141732,0.9669139465875372,0.0925984251968504,0.9669139465875372,0.1851968503937008,0.9669139465875372,0.6944881889763779,0.9669139465875372,0.21606299212598423,0.9669139465875372,0.23149606299212597
476,0.9689495548961424,0.13889763779527559,0.9689495548961424,0.0925984251968504,0.9689495548961424,0.1851968503937008,0.9689495548961424,0.6944881889763779,0.9689495548961424,0.21606299212598423,0.9689495548961424,0.23149606299212597
477,0.9709851632047478,0.13889763779527559,0.9709851632047478,0.0925984251968504,0.9709851632047478,0.1851968503937008,0.9709851632047478,0.6944881889763779,0.9709851632047478,0.21606299212598423,0.9709851632047478,0.23149606299212597
478,0.9730207715133532,0.12346456692913385,0.9730207715133532,0.0925984251968504,0.9730207715133532,0.1851968503937008,0.9730207715133532,0.6944881889763779,0.9730207715133532,0.21606299212598423,0.9730207715133532,0.23149606299212597
479,0.9750563798219585,0.12346456692913385,0.9750563798219585,0.0925984251968504,0.9750563798219585,0.1851968503937008,0.9750563798219585,0.6944881889763779,0.9750563798219585,0.21606299212598423,0.9750563798219585,0.23149606299212597
480,0.9770919881305639,0.10803149606299212,0.9770919881305639,0.0925984251968504,0.9770919881305639,0.1851968503937008,0.9770919881305639,0.6944881889763779,0.9770919881305639,0.21606299212598423,0.9770919881305639,0.23149606299212597
481,0.9791275964391691,0.10803149606299212,0.9791275964391691,0.0925984251968504,0.9791275964391691,0.1851968503937008,0.9791275964391691,0.6944881889763779,0.9791275964391691,0.21606299212598423,0.9791275964391691,0.23149606299212597
482,0.9811632047477745,0.10803149606299212,0.9811632047477745,0.0925984251968504,0.9811632047477745,0.1851968503937008,0.9811632047477745,0.6944881889763779,0.9811632047477745,0.21606299212598423,0.9811632047477745,0.23149606299212597
483,0.9831988130563799,0.0925984251968504,0.9831988130563799,0.0925984251968504,0.9831988130563799,0.1851968503937008,0.9831988130563799,0.6944881889763779,0.9831988130563799,0.21606299212598423,0.9831988130563799,0.23149606299212597
484,0.9852344213649852,0.0925984251968504,0.9852344213649852,0.0925984251968504,0.9852344213649852,0.1851968503937008,0.9852344213649852,0.6944881889763779,0.9852344213649852,0.21606299212598423,0.9852344213649852,0.23149606299212597
485,0.9872700296735906,0.0925984251968504,0.9872700296735906,0.0925984251968504,0.9872700296735906,0.1851968503937008,0.9872700296735906,0.6944881889763779,0.9872700296735906,0.21606299212598423,0.9872700296735906,0.23149606299212597
486,0.989305637982196,0.0925984251968504,0.989305637982196,0.0925984251968504,0.989305637982196,0.1851968503937008,0.989305637982196,0.6944881889763779,0.989305637982196,0.21606299212598423,0.989305637982196,0.23149606299212597
487,0.9913412462908012,0.0925984251968504,0.9913412462908012,0.0925984251968504,0.9913412462908012,0.1851968503937008,0.9913412462908012,0.6944881889763779,0.9913412462908012,0.21606299212598423,0.9913412462908012,0.23149606299212597
488,0.9933768545994066,0.0925984251968504,0.9933768545994066,0.0925984251968504,0.9933768545994066,0.1851968503937008,0.9933768545994066,0.6944881889763779,0.9933768545994066,0.21606299212598423,0.9933768545994066,0.23149606299212597
489,0.9954124629080119,0.0925984251968504,0.9954124629080119,0.0925984251968504,0.9954124629080119,0.1851968503937008,0.9954124629080119,0.6944881889763779,0.9954124629080119,0.21606299212598423,0.9954124629080119,0.23149606299212597
490,0.9974480712166173,0.0925984251968504,0.9974480712166173,0.0925984251968504,0.9974480712166173,0.1851968503937008,0.9974480712166173,0.6944881889763779,0.9974480712166173,0.21606299212598423,0.9974480712166173,0.23149606299212597
491,0.9994836795252227,0.0925984251968504,0.9994836795252227,0.07716535433070866,0.9994836795252227,0.1851968503937008,0.9994836795252227,0.6944881889763779,0.9994836795252227,0.2006299212598425,0.9994836795252227,0.21606299212598423
492,1.001519287833828,0.0925984251968504,1.001519287833828,0.07716535433070866,1.001519287833828,0.12346456692913385,1.001519287833828,0.6944881889763779,1.001519287833828,0.2006299212598425,1.001519287833828,0.21606299212598423
493,1.0035548961424332,0.0925984251968504,1.0035548961424332,0.061732283464566926,1.0035548961424332,0.0925984251968504,1.0035548961424332,0.6790551181102362,1.0035548961424332,0.2006299212598425,1.0035548961424332,0.21606299212598423
494,1.0055905044510387,0.0925984251968504,1.0055905044510387,0.061732283464566926,1.0055905044510387,0.061732283464566926,1.0055905044510387,0.6790551181102362,1.0055905044510387,0.2006299212598425,1.0055905044510387,0.21606299212598423
495,1.007626112759644,0.10803149606299212,1.007626112759644,0.0462992125984252,1.007626112759644,0.0925984251968504,1.007626112759644,0.6636220472440945,1.007626112759644,0.2006299212598425,1.007626112759644,0.21606299212598423
496,1.0096617210682493,0.12346456692913385,1.0096617210682493,0.0462992125984252,1.0096617210682493,0.12346456692913385,1.0096617210682493,0.6636220472440945,1.0096617210682493,0.2006299212598425,1.0096617210682493,0.21606299212598423
497,1.0116973293768547,0.13889763779527559,1.0116973293768547,0.0462992125984252,1.0116973293768547,0.1851968503937008,1.0116973293768547,0.6636220472440945,1.0116973293768547,0.2006299212598425,1.0116973293768547,0.21606299212598423
498,1.01373293768546,0.13889763779527559,1.01373293768546,0.0462992125984252,1.01373293768546,0.2006299212598425,1.01373293768546,0.6636220472440945,1.01373293768546,0.2006299212598425,1.01373293768546,0.21606299212598423
499,1.0157685459940653,0.15433070866141732,1.0157685459940653,0.0462992125984252,1.0157685459940653,0.2006299212598425,1.0157685459940653,0.6636220472440945,1.0157685459940653,0.2006299212598425,1.0157685459940653,0.21606299212598423
500,1.0178041543026706,0.15433070866141732,1.0178041543026706,0.0462992125984252,1.0178041543026706,0.21606299212598423,1.0178041543026706,0.6636220472440945,1.0178041543026706,0.2006299212598425,1.0178041543026706,0.21606299212598423
501,1.019839762611276,0.15433070866141732,1.019839762611276,0.0462992125984252,1.019839762611276,0.21606299212598423,1.019839762611276,0.6636220472440945,1.019839762611276,0.2006299212598425,1.019839762611276,0.21606299212598423
502,1.0218753709198813,0.15433070866141732,1.0218753709198813,0.0462992125984252,1.0218753709198813,0.21606299212598423,1.0218753709198813,0.6636220472440945,1.0218753709198813,0.2006299212598425,1.0218753709198813,0.21606299212598423
503,1.0239109792284866,0.15433070866141732,1.0239109792284866,0.0462992125984252,1.0239109792284866,0.21606299212598423,1.0239109792284866,0.6636220472440945,1.0239109792284866,0.2006299212598425,1.0239109792284866,0.21606299212598423
504,1.0259465875370921,0.15433070866141732,1.0259465875370921,0.0462992125984252,1.0259465875370921,0.21606299212598423,1.0259465875370921,0.6636220472440945,1.0259465875370921,0.2006299212598425,1.0259465875370921,0.21606299212598423
