,x_val,y_val,x_val,y_val,x_val,y_val,x_val,y_val,x_val,y_val,x_val,y_val,x_val,y_val
0,0.0,0.9340106951871658,0.0,1.4807486631016042,0.0,1.9135828877005348,0.0,0.9567914438502674,0.0,0.751764705882353,0.0,1.4351871657754012
1,0.002228897566836888,0.9340106951871658,0.002228897566836888,1.4579679144385027,0.002228897566836888,1.9135828877005348,0.002228897566836888,0.9567914438502674,0.002228897566836888,0.7062032085561497,0.002228897566836888,1.3896256684491979
2,0.004457795133673776,0.9340106951871658,0.004457795133673776,1.4579679144385027,0.004457795133673776,1.8908021390374332,0.004457795133673776,0.9567914438502674,0.004457795133673776,0.6606417112299465,0.004457795133673776,1.321283422459893
3,0.0066866927005106635,0.9340106951871658,0.0066866927005106635,1.4351871657754012,0.0066866927005106635,1.8908021390374332,0.0066866927005106635,0.9567914438502674,0.0066866927005106635,0.637860962566845,0.0066866927005106635,1.2529411764705882
4,0.008915590267347551,0.9340106951871658,0.008915590267347551,1.4351871657754012,0.008915590267347551,1.8680213903743317,0.008915590267347551,0.9567914438502674,0.008915590267347551,0.637860962566845,0.008915590267347551,1.2301604278074867
5,0.011144487834184438,0.9567914438502674,0.011144487834184438,1.4351871657754012,0.011144487834184438,1.8680213903743317,0.011144487834184438,0.9567914438502674,0.011144487834184438,0.6150802139037433,0.011144487834184438,1.2073796791443852
6,0.013373385401021327,0.9567914438502674,0.013373385401021327,1.4124064171122994,0.013373385401021327,1.8680213903743317,0.013373385401021327,0.9567914438502674,0.013373385401021327,0.6150802139037433,0.013373385401021327,1.2073796791443852
7,0.015602282967858214,0.9567914438502674,0.015602282967858214,1.4124064171122994,0.015602282967858214,1.8680213903743317,0.015602282967858214,0.9567914438502674,0.015602282967858214,0.5922994652406417,0.015602282967858214,1.1845989304812834
8,0.017831180534695103,0.9567914438502674,0.017831180534695103,1.4124064171122994,0.017831180534695103,1.84524064171123,0.017831180534695103,0.9567914438502674,0.017831180534695103,0.5922994652406417,0.017831180534695103,1.1845989304812834
9,0.02006007810153199,0.9567914438502674,0.02006007810153199,1.4124064171122994,0.02006007810153199,1.84524064171123,0.02006007810153199,0.9567914438502674,0.02006007810153199,0.5922994652406417,0.02006007810153199,1.1845989304812834
10,0.022288975668368877,0.9567914438502674,0.022288975668368877,1.4124064171122994,0.022288975668368877,1.8224598930481284,0.022288975668368877,0.9567914438502674,0.022288975668368877,0.5695187165775402,0.022288975668368877,1.1845989304812834
11,0.024517873235205767,0.9567914438502674,0.024517873235205767,1.3896256684491979,0.024517873235205767,1.8224598930481284,0.024517873235205767,0.9567914438502674,0.024517873235205767,0.5695187165775402,0.024517873235205767,1.1845989304812834
12,0.026746770802042654,0.9567914438502674,0.026746770802042654,1.3896256684491979,0.026746770802042654,1.7996791443850269,0.026746770802042654,0.9567914438502674,0.026746770802042654,0.5467379679144385,0.026746770802042654,1.1845989304812834
13,0.02897566836887954,0.979572192513369,0.02897566836887954,1.3896256684491979,0.02897566836887954,1.7541176470588236,0.02897566836887954,0.9567914438502674,0.02897566836887954,0.5467379679144385,0.02897566836887954,1.1845989304812834
14,0.031204565935716428,0.979572192513369,0.031204565935716428,1.3896256684491979,0.031204565935716428,1.7085561497326205,0.031204565935716428,0.9567914438502674,0.031204565935716428,0.5467379679144385,0.031204565935716428,1.1845989304812834
15,0.033433463502553315,0.979572192513369,0.033433463502553315,1.3896256684491979,0.033433463502553315,1.6857754010695187,0.033433463502553315,0.9567914438502674,0.033433463502553315,0.5467379679144385,0.033433463502553315,1.1845989304812834
16,0.035662361069390205,0.979572192513369,0.035662361069390205,1.3668449197860963,0.035662361069390205,1.6629946524064172,0.035662361069390205,0.9340106951871658,0.035662361069390205,0.5467379679144385,0.035662361069390205,1.1845989304812834
17,0.037891258636227096,0.979572192513369,0.037891258636227096,1.3668449197860963,0.037891258636227096,1.6629946524064172,0.037891258636227096,0.9340106951871658,0.037891258636227096,0.5467379679144385,0.037891258636227096,1.1845989304812834
18,0.04012015620306398,0.979572192513369,0.04012015620306398,1.3668449197860963,0.04012015620306398,1.6629946524064172,0.04012015620306398,0.9112299465240642,0.04012015620306398,0.5467379679144385,0.04012015620306398,1.1845989304812834
19,0.04234905376990087,0.979572192513369,0.04234905376990087,1.3668449197860963,0.04234905376990087,1.6402139037433157,0.04234905376990087,0.8884491978609627,0.04234905376990087,0.5467379679144385,0.04234905376990087,1.1845989304812834
20,0.04457795133673775,0.979572192513369,0.04457795133673775,1.3668449197860963,0.04457795133673775,1.6402139037433157,0.04457795133673775,0.865668449197861,0.04457795133673775,0.5467379679144385,0.04457795133673775,1.1845989304812834
21,0.046806848903574644,0.979572192513369,0.046806848903574644,1.3440641711229948,0.046806848903574644,1.6402139037433157,0.046806848903574644,0.8428877005347594,0.046806848903574644,0.5467379679144385,0.046806848903574644,1.1845989304812834
22,0.049035746470411534,0.979572192513369,0.049035746470411534,1.3440641711229948,0.049035746470411534,1.6402139037433157,0.049035746470411534,0.8428877005347594,0.049035746470411534,0.5467379679144385,0.049035746470411534,1.1845989304812834
23,0.05126464403724842,0.979572192513369,0.05126464403724842,1.3440641711229948,0.05126464403724842,1.617433155080214,0.05126464403724842,0.8201069518716578,0.05126464403724842,0.5467379679144385,0.05126464403724842,1.1845989304812834
24,0.05349354160408531,0.979572192513369,0.05349354160408531,1.3440641711229948,0.05349354160408531,1.617433155080214,0.05349354160408531,0.8201069518716578,0.05349354160408531,0.5467379679144385,0.05349354160408531,1.1845989304812834
25,0.0557224391709222,0.979572192513369,0.0557224391709222,1.3440641711229948,0.0557224391709222,1.617433155080214,0.0557224391709222,0.7973262032085562,0.0557224391709222,0.5467379679144385,0.0557224391709222,1.1845989304812834
26,0.05795133673775908,0.979572192513369,0.05795133673775908,1.3440641711229948,0.05795133673775908,1.5946524064171124,0.05795133673775908,0.7973262032085562,0.05795133673775908,0.5467379679144385,0.05795133673775908,1.1845989304812834
27,0.06018023430459597,0.979572192513369,0.06018023430459597,1.321283422459893,0.06018023430459597,1.5946524064171124,0.06018023430459597,0.7745454545454545,0.06018023430459597,0.5467379679144385,0.06018023430459597,1.1845989304812834
28,0.062409131871432856,0.979572192513369,0.062409131871432856,1.321283422459893,0.062409131871432856,1.5946524064171124,0.062409131871432856,0.7745454545454545,0.062409131871432856,0.5467379679144385,0.062409131871432856,1.1845989304812834
29,0.06463802943826975,0.979572192513369,0.06463802943826975,1.321283422459893,0.06463802943826975,1.5718716577540108,0.06463802943826975,0.7745454545454545,0.06463802943826975,0.5467379679144385,0.06463802943826975,1.1845989304812834
30,0.06686692700510663,0.979572192513369,0.06686692700510663,1.321283422459893,0.06686692700510663,1.5718716577540108,0.06686692700510663,0.7745454545454545,0.06686692700510663,0.5467379679144385,0.06686692700510663,1.1845989304812834
31,0.06909582457194352,0.979572192513369,0.06909582457194352,1.321283422459893,0.06909582457194352,1.5718716577540108,0.06909582457194352,0.7745454545454545,0.06909582457194352,0.5467379679144385,0.06909582457194352,1.1845989304812834
32,0.07132472213878041,0.979572192513369,0.07132472213878041,1.321283422459893,0.07132472213878041,1.5718716577540108,0.07132472213878041,0.7745454545454545,0.07132472213878041,0.5467379679144385,0.07132472213878041,1.1845989304812834
33,0.0735536197056173,0.979572192513369,0.0735536197056173,1.321283422459893,0.0735536197056173,1.549090909090909,0.0735536197056173,0.7745454545454545,0.0735536197056173,0.5467379679144385,0.0735536197056173,1.1845989304812834
34,0.07578251727245419,0.979572192513369,0.07578251727245419,1.321283422459893,0.07578251727245419,1.549090909090909,0.07578251727245419,0.7745454545454545,0.07578251727245419,0.5467379679144385,0.07578251727245419,1.1845989304812834
35,0.07801141483929107,0.979572192513369,0.07801141483929107,1.321283422459893,0.07801141483929107,1.549090909090909,0.07801141483929107,0.7745454545454545,0.07801141483929107,0.5467379679144385,0.07801141483929107,1.1845989304812834
36,0.08024031240612796,0.979572192513369,0.08024031240612796,1.321283422459893,0.08024031240612796,1.549090909090909,0.08024031240612796,0.7973262032085562,0.08024031240612796,0.5467379679144385,0.08024031240612796,1.1845989304812834
37,0.08246920997296485,0.979572192513369,0.08246920997296485,1.321283422459893,0.08246920997296485,1.549090909090909,0.08246920997296485,0.7973262032085562,0.08246920997296485,0.5467379679144385,0.08246920997296485,1.1845989304812834
38,0.08469810753980174,0.979572192513369,0.08469810753980174,1.321283422459893,0.08469810753980174,1.549090909090909,0.08469810753980174,0.8201069518716578,0.08469810753980174,0.5239572192513369,0.08469810753980174,1.1845989304812834
39,0.08692700510663863,0.9567914438502674,0.08692700510663863,1.321283422459893,0.08692700510663863,1.549090909090909,0.08692700510663863,0.865668449197861,0.08692700510663863,0.4783957219251337,0.08692700510663863,1.1845989304812834
40,0.0891559026734755,0.9567914438502674,0.0891559026734755,1.321283422459893,0.0891559026734755,1.549090909090909,0.0891559026734755,0.8884491978609627,0.0891559026734755,0.4328342245989305,0.0891559026734755,1.1845989304812834
41,0.0913848002403124,0.9567914438502674,0.0913848002403124,1.321283422459893,0.0913848002403124,1.549090909090909,0.0913848002403124,0.9112299465240642,0.0913848002403124,0.4100534759358289,0.0913848002403124,1.1618181818181819
42,0.09361369780714929,0.9567914438502674,0.09361369780714929,1.321283422459893,0.09361369780714929,1.549090909090909,0.09361369780714929,0.9340106951871658,0.09361369780714929,0.3644919786096257,0.09361369780714929,1.1618181818181819
43,0.09584259537398618,0.9567914438502674,0.09584259537398618,1.321283422459893,0.09584259537398618,1.549090909090909,0.09584259537398618,0.9340106951871658,0.09584259537398618,0.3644919786096257,0.09584259537398618,1.1390374331550803
44,0.09807149294082307,0.9567914438502674,0.09807149294082307,1.2985026737967915,0.09807149294082307,1.549090909090909,0.09807149294082307,0.9567914438502674,0.09807149294082307,0.3417112299465241,0.09807149294082307,1.1390374331550803
45,0.10030039050765995,0.9567914438502674,0.10030039050765995,1.2985026737967915,0.10030039050765995,1.549090909090909,0.10030039050765995,0.9567914438502674,0.10030039050765995,0.3417112299465241,0.10030039050765995,1.1162566844919786
46,0.10252928807449684,0.9567914438502674,0.10252928807449684,1.2985026737967915,0.10252928807449684,1.549090909090909,0.10252928807449684,0.979572192513369,0.10252928807449684,0.3189304812834225,0.10252928807449684,1.093475935828877
47,0.10475818564133373,0.9567914438502674,0.10475818564133373,1.2985026737967915,0.10475818564133373,1.549090909090909,0.10475818564133373,0.979572192513369,0.10475818564133373,0.3189304812834225,0.10475818564133373,1.0706951871657755
48,0.10698708320817062,0.9567914438502674,0.10698708320817062,1.2985026737967915,0.10698708320817062,1.549090909090909,0.10698708320817062,0.979572192513369,0.10698708320817062,0.3189304812834225,0.10698708320817062,1.0479144385026737
49,0.1092159807750075,0.9567914438502674,0.1092159807750075,1.2985026737967915,0.1092159807750075,1.549090909090909,0.1092159807750075,0.979572192513369,0.1092159807750075,0.3189304812834225,0.1092159807750075,1.0479144385026737
50,0.1114448783418444,0.9567914438502674,0.1114448783418444,1.321283422459893,0.1114448783418444,1.5263101604278075,0.1114448783418444,1.0023529411764707,0.1114448783418444,0.3189304812834225,0.1114448783418444,1.0251336898395722
51,0.11367377590868127,0.9567914438502674,0.11367377590868127,1.321283422459893,0.11367377590868127,1.5263101604278075,0.11367377590868127,1.0023529411764707,0.11367377590868127,0.3189304812834225,0.11367377590868127,1.0023529411764707
52,0.11590267347551816,0.9567914438502674,0.11590267347551816,1.321283422459893,0.11590267347551816,1.503529411764706,0.11590267347551816,1.0023529411764707,0.11590267347551816,0.3189304812834225,0.11590267347551816,1.0023529411764707
53,0.11813157104235505,0.9567914438502674,0.11813157104235505,1.321283422459893,0.11813157104235505,1.503529411764706,0.11813157104235505,1.0023529411764707,0.11813157104235505,0.3189304812834225,0.11813157104235505,1.0023529411764707
54,0.12036046860919195,0.9567914438502674,0.12036046860919195,1.321283422459893,0.12036046860919195,1.4807486631016042,0.12036046860919195,1.0023529411764707,0.12036046860919195,0.29614973262032085,0.12036046860919195,1.0023529411764707
55,0.12258936617602884,0.9567914438502674,0.12258936617602884,1.321283422459893,0.12258936617602884,1.4807486631016042,0.12258936617602884,1.0251336898395722,0.12258936617602884,0.29614973262032085,0.12258936617602884,1.0023529411764707
56,0.12481826374286571,0.9567914438502674,0.12481826374286571,1.321283422459893,0.12481826374286571,1.4579679144385027,0.12481826374286571,1.0251336898395722,0.12481826374286571,0.29614973262032085,0.12481826374286571,1.0023529411764707
57,0.12704716130970262,0.9567914438502674,0.12704716130970262,1.321283422459893,0.12704716130970262,1.4579679144385027,0.12704716130970262,1.0251336898395722,0.12704716130970262,0.29614973262032085,0.12704716130970262,1.0023529411764707
58,0.1292760588765395,0.9567914438502674,0.1292760588765395,1.321283422459893,0.1292760588765395,1.4351871657754012,0.1292760588765395,1.0479144385026737,0.1292760588765395,0.29614973262032085,0.1292760588765395,1.0023529411764707
59,0.13150495644337637,0.9567914438502674,0.13150495644337637,1.321283422459893,0.13150495644337637,1.4351871657754012,0.13150495644337637,1.0706951871657755,0.13150495644337637,0.29614973262032085,0.13150495644337637,1.0023529411764707
60,0.13373385401021326,0.979572192513369,0.13373385401021326,1.321283422459893,0.13373385401021326,1.4351871657754012,0.13373385401021326,1.093475935828877,0.13373385401021326,0.29614973262032085,0.13373385401021326,1.0023529411764707
61,0.13596275157705015,0.979572192513369,0.13596275157705015,1.321283422459893,0.13596275157705015,1.4351871657754012,0.13596275157705015,1.1390374331550803,0.13596275157705015,0.29614973262032085,0.13596275157705015,1.0023529411764707
62,0.13819164914388704,0.979572192513369,0.13819164914388704,1.321283422459893,0.13819164914388704,1.4124064171122994,0.13819164914388704,1.1618181818181819,0.13819164914388704,0.29614973262032085,0.13819164914388704,1.0023529411764707
63,0.14042054671072393,0.979572192513369,0.14042054671072393,1.321283422459893,0.14042054671072393,1.4124064171122994,0.14042054671072393,1.1618181818181819,0.14042054671072393,0.29614973262032085,0.14042054671072393,1.0023529411764707
64,0.14264944427756082,0.979572192513369,0.14264944427756082,1.321283422459893,0.14264944427756082,1.4124064171122994,0.14264944427756082,1.1618181818181819,0.14264944427756082,0.29614973262032085,0.14264944427756082,1.0023529411764707
65,0.1448783418443977,0.979572192513369,0.1448783418443977,1.321283422459893,0.1448783418443977,1.4124064171122994,0.1448783418443977,1.1618181818181819,0.1448783418443977,0.29614973262032085,0.1448783418443977,1.0023529411764707
66,0.1471072394112346,0.979572192513369,0.1471072394112346,1.321283422459893,0.1471072394112346,1.4124064171122994,0.1471072394112346,1.1618181818181819,0.1471072394112346,0.29614973262032085,0.1471072394112346,1.0023529411764707
67,0.1493361369780715,0.979572192513369,0.1493361369780715,1.321283422459893,0.1493361369780715,1.3896256684491979,0.1493361369780715,1.1618181818181819,0.1493361369780715,0.3189304812834225,0.1493361369780715,1.0023529411764707
68,0.15156503454490838,0.979572192513369,0.15156503454490838,1.321283422459893,0.15156503454490838,1.3896256684491979,0.15156503454490838,1.1618181818181819,0.15156503454490838,0.3189304812834225,0.15156503454490838,1.0023529411764707
69,0.15379393211174525,0.979572192513369,0.15379393211174525,1.321283422459893,0.15379393211174525,1.4124064171122994,0.15379393211174525,1.1618181818181819,0.15379393211174525,0.3189304812834225,0.15379393211174525,0.979572192513369
70,0.15602282967858214,0.979572192513369,0.15602282967858214,1.321283422459893,0.15602282967858214,1.4351871657754012,0.15602282967858214,1.1618181818181819,0.15602282967858214,0.3189304812834225,0.15602282967858214,0.979572192513369
71,0.15825172724541903,0.979572192513369,0.15825172724541903,1.321283422459893,0.15825172724541903,1.4579679144385027,0.15825172724541903,1.1618181818181819,0.15825172724541903,0.3189304812834225,0.15825172724541903,0.9567914438502674
72,0.16048062481225592,0.979572192513369,0.16048062481225592,1.321283422459893,0.16048062481225592,1.4807486631016042,0.16048062481225592,1.1618181818181819,0.16048062481225592,0.3189304812834225,0.16048062481225592,0.9567914438502674
73,0.1627095223790928,0.979572192513369,0.1627095223790928,1.321283422459893,0.1627095223790928,1.503529411764706,0.1627095223790928,1.1618181818181819,0.1627095223790928,0.3189304812834225,0.1627095223790928,0.9340106951871658
74,0.1649384199459297,0.979572192513369,0.1649384199459297,1.321283422459893,0.1649384199459297,1.503529411764706,0.1649384199459297,1.1618181818181819,0.1649384199459297,0.3189304812834225,0.1649384199459297,0.9340106951871658
75,0.1671673175127666,0.979572192513369,0.1671673175127666,1.321283422459893,0.1671673175127666,1.503529411764706,0.1671673175127666,1.1618181818181819,0.1671673175127666,0.3189304812834225,0.1671673175127666,0.9567914438502674
76,0.16939621507960348,0.979572192513369,0.16939621507960348,1.321283422459893,0.16939621507960348,1.503529411764706,0.16939621507960348,1.1618181818181819,0.16939621507960348,0.3189304812834225,0.16939621507960348,0.9567914438502674
77,0.17162511264644037,0.979572192513369,0.17162511264644037,1.321283422459893,0.17162511264644037,1.503529411764706,0.17162511264644037,1.1618181818181819,0.17162511264644037,0.3189304812834225,0.17162511264644037,0.9567914438502674
78,0.17385401021327726,0.979572192513369,0.17385401021327726,1.2985026737967915,0.17385401021327726,1.503529411764706,0.17385401021327726,1.1618181818181819,0.17385401021327726,0.3189304812834225,0.17385401021327726,0.9567914438502674
79,0.17608290778011415,0.979572192513369,0.17608290778011415,1.2985026737967915,0.17608290778011415,1.503529411764706,0.17608290778011415,1.1618181818181819,0.17608290778011415,0.3189304812834225,0.17608290778011415,0.9567914438502674
80,0.178311805346951,0.979572192513369,0.178311805346951,1.2985026737967915,0.178311805346951,1.503529411764706,0.178311805346951,1.1618181818181819,0.178311805346951,0.3189304812834225,0.178311805346951,0.9567914438502674
81,0.1805407029137879,0.979572192513369,0.1805407029137879,1.2985026737967915,0.1805407029137879,1.503529411764706,0.1805407029137879,1.1618181818181819,0.1805407029137879,0.3189304812834225,0.1805407029137879,0.9567914438502674
82,0.1827696004806248,0.979572192513369,0.1827696004806248,1.2985026737967915,0.1827696004806248,1.503529411764706,0.1827696004806248,1.1390374331550803,0.1827696004806248,0.3189304812834225,0.1827696004806248,0.9567914438502674
83,0.18499849804746168,0.979572192513369,0.18499849804746168,1.2985026737967915,0.18499849804746168,1.503529411764706,0.18499849804746168,1.1162566844919786,0.18499849804746168,0.3189304812834225,0.18499849804746168,0.9567914438502674
84,0.18722739561429858,0.979572192513369,0.18722739561429858,1.2985026737967915,0.18722739561429858,1.503529411764706,0.18722739561429858,1.0706951871657755,0.18722739561429858,0.3189304812834225,0.18722739561429858,0.9567914438502674
85,0.18945629318113547,0.979572192513369,0.18945629318113547,1.2985026737967915,0.18945629318113547,1.503529411764706,0.18945629318113547,1.0479144385026737,0.18945629318113547,0.3417112299465241,0.18945629318113547,0.9567914438502674
86,0.19168519074797236,0.9567914438502674,0.19168519074797236,1.2985026737967915,0.19168519074797236,1.503529411764706,0.19168519074797236,1.0251336898395722,0.19168519074797236,0.3417112299465241,0.19168519074797236,0.9567914438502674
87,0.19391408831480925,0.9567914438502674,0.19391408831480925,1.321283422459893,0.19391408831480925,1.503529411764706,0.19391408831480925,1.0251336898395722,0.19391408831480925,0.3417112299465241,0.19391408831480925,0.9567914438502674
88,0.19614298588164614,0.9567914438502674,0.19614298588164614,1.321283422459893,0.19614298588164614,1.503529411764706,0.19614298588164614,1.0023529411764707,0.19614298588164614,0.3417112299465241,0.19614298588164614,0.9567914438502674
89,0.19837188344848303,0.9567914438502674,0.19837188344848303,1.321283422459893,0.19837188344848303,1.503529411764706,0.19837188344848303,1.0023529411764707,0.19837188344848303,0.3644919786096257,0.19837188344848303,0.9567914438502674
90,0.2006007810153199,0.9340106951871658,0.2006007810153199,1.321283422459893,0.2006007810153199,1.503529411764706,0.2006007810153199,0.979572192513369,0.2006007810153199,0.3644919786096257,0.2006007810153199,0.9567914438502674
91,0.20282967858215678,0.9340106951871658,0.20282967858215678,1.321283422459893,0.20282967858215678,1.503529411764706,0.20282967858215678,0.979572192513369,0.20282967858215678,0.3644919786096257,0.20282967858215678,0.9567914438502674
92,0.20505857614899367,0.9340106951871658,0.20505857614899367,1.321283422459893,0.20505857614899367,1.503529411764706,0.20505857614899367,0.979572192513369,0.20505857614899367,0.3644919786096257,0.20505857614899367,0.9567914438502674
93,0.20728747371583056,0.9340106951871658,0.20728747371583056,1.321283422459893,0.20728747371583056,1.503529411764706,0.20728747371583056,0.9567914438502674,0.20728747371583056,0.3644919786096257,0.20728747371583056,0.9567914438502674
94,0.20951637128266745,0.9340106951871658,0.20951637128266745,1.321283422459893,0.20951637128266745,1.503529411764706,0.20951637128266745,0.979572192513369,0.20951637128266745,0.3644919786096257,0.20951637128266745,0.9567914438502674
95,0.21174526884950434,0.9340106951871658,0.21174526884950434,1.321283422459893,0.21174526884950434,1.4807486631016042,0.21174526884950434,0.979572192513369,0.21174526884950434,0.3644919786096257,0.21174526884950434,0.9567914438502674
96,0.21397416641634123,0.9112299465240642,0.21397416641634123,1.321283422459893,0.21397416641634123,1.4807486631016042,0.21397416641634123,0.979572192513369,0.21397416641634123,0.3644919786096257,0.21397416641634123,0.9567914438502674
97,0.21620306398317812,0.9112299465240642,0.21620306398317812,1.321283422459893,0.21620306398317812,1.4807486631016042,0.21620306398317812,0.979572192513369,0.21620306398317812,0.3644919786096257,0.21620306398317812,0.9567914438502674
98,0.218431961550015,0.9112299465240642,0.218431961550015,1.321283422459893,0.218431961550015,1.4807486631016042,0.218431961550015,1.0023529411764707,0.218431961550015,0.3644919786096257,0.218431961550015,0.9567914438502674
99,0.2206608591168519,0.8884491978609627,0.2206608591168519,1.321283422459893,0.2206608591168519,1.4579679144385027,0.2206608591168519,1.0023529411764707,0.2206608591168519,0.3644919786096257,0.2206608591168519,0.9567914438502674
100,0.2228897566836888,0.8884491978609627,0.2228897566836888,1.321283422459893,0.2228897566836888,1.4579679144385027,0.2228897566836888,1.0023529411764707,0.2228897566836888,0.3644919786096257,0.2228897566836888,0.9567914438502674
101,0.22511865425052566,0.8884491978609627,0.22511865425052566,1.321283422459893,0.22511865425052566,1.4351871657754012,0.22511865425052566,1.0023529411764707,0.22511865425052566,0.3644919786096257,0.22511865425052566,0.9567914438502674
102,0.22734755181736255,0.865668449197861,0.22734755181736255,1.321283422459893,0.22734755181736255,1.4351871657754012,0.22734755181736255,1.0023529411764707,0.22734755181736255,0.3644919786096257,0.22734755181736255,0.9567914438502674
103,0.22957644938419944,0.865668449197861,0.22957644938419944,1.321283422459893,0.22957644938419944,1.4124064171122994,0.22957644938419944,1.0023529411764707,0.22957644938419944,0.3644919786096257,0.22957644938419944,0.9567914438502674
104,0.23180534695103633,0.865668449197861,0.23180534695103633,1.321283422459893,0.23180534695103633,1.4124064171122994,0.23180534695103633,1.0023529411764707,0.23180534695103633,0.3644919786096257,0.23180534695103633,0.9567914438502674
105,0.23403424451787322,0.865668449197861,0.23403424451787322,1.321283422459893,0.23403424451787322,1.4124064171122994,0.23403424451787322,1.0023529411764707,0.23403424451787322,0.3644919786096257,0.23403424451787322,0.9567914438502674
106,0.2362631420847101,0.8428877005347594,0.2362631420847101,1.321283422459893,0.2362631420847101,1.4124064171122994,0.2362631420847101,1.0023529411764707,0.2362631420847101,0.3644919786096257,0.2362631420847101,0.9567914438502674
107,0.238492039651547,0.8428877005347594,0.238492039651547,1.321283422459893,0.238492039651547,1.3896256684491979,0.238492039651547,1.0023529411764707,0.238492039651547,0.3644919786096257,0.238492039651547,0.9567914438502674
108,0.2407209372183839,0.8428877005347594,0.2407209372183839,1.321283422459893,0.2407209372183839,1.3896256684491979,0.2407209372183839,1.0023529411764707,0.2407209372183839,0.3644919786096257,0.2407209372183839,0.9567914438502674
109,0.24294983478522078,0.865668449197861,0.24294983478522078,1.321283422459893,0.24294983478522078,1.3896256684491979,0.24294983478522078,1.0023529411764707,0.24294983478522078,0.3417112299465241,0.24294983478522078,0.9567914438502674
110,0.24517873235205767,0.865668449197861,0.24517873235205767,1.321283422459893,0.24517873235205767,1.3896256684491979,0.24517873235205767,1.0023529411764707,0.24517873235205767,0.3417112299465241,0.24517873235205767,0.9567914438502674
111,0.24740762991889456,0.8884491978609627,0.24740762991889456,1.321283422459893,0.24740762991889456,1.3896256684491979,0.24740762991889456,1.0023529411764707,0.24740762991889456,0.3189304812834225,0.24740762991889456,0.9567914438502674
112,0.24963652748573142,0.8884491978609627,0.24963652748573142,1.321283422459893,0.24963652748573142,1.3896256684491979,0.24963652748573142,1.0023529411764707,0.24963652748573142,0.3189304812834225,0.24963652748573142,0.9567914438502674
113,0.2518654250525683,0.8884491978609627,0.2518654250525683,1.2985026737967915,0.2518654250525683,1.3896256684491979,0.2518654250525683,1.0023529411764707,0.2518654250525683,0.29614973262032085,0.2518654250525683,0.9567914438502674
114,0.25409432261940523,0.9112299465240642,0.25409432261940523,1.2985026737967915,0.25409432261940523,1.3896256684491979,0.25409432261940523,1.0023529411764707,0.25409432261940523,0.29614973262032085,0.25409432261940523,0.9567914438502674
115,0.2563232201862421,0.9112299465240642,0.2563232201862421,1.2985026737967915,0.2563232201862421,1.3896256684491979,0.2563232201862421,1.0023529411764707,0.2563232201862421,0.29614973262032085,0.2563232201862421,0.9567914438502674
116,0.258552117753079,0.9112299465240642,0.258552117753079,1.2985026737967915,0.258552117753079,1.3896256684491979,0.258552117753079,1.0023529411764707,0.258552117753079,0.29614973262032085,0.258552117753079,0.9567914438502674
117,0.2607810153199159,0.9112299465240642,0.2607810153199159,1.27572192513369,0.2607810153199159,1.3896256684491979,0.2607810153199159,1.0251336898395722,0.2607810153199159,0.27336898395721926,0.2607810153199159,0.9567914438502674
118,0.26300991288675274,0.9112299465240642,0.26300991288675274,1.27572192513369,0.26300991288675274,1.3896256684491979,0.26300991288675274,1.0479144385026737,0.26300991288675274,0.27336898395721926,0.26300991288675274,0.9567914438502674
119,0.26523881045358966,0.9112299465240642,0.26523881045358966,1.27572192513369,0.26523881045358966,1.3896256684491979,0.26523881045358966,1.0706951871657755,0.26523881045358966,0.27336898395721926,0.26523881045358966,0.9567914438502674
120,0.2674677080204265,0.9112299465240642,0.2674677080204265,1.27572192513369,0.2674677080204265,1.3896256684491979,0.2674677080204265,1.0706951871657755,0.2674677080204265,0.27336898395721926,0.2674677080204265,0.9567914438502674
121,0.26969660558726344,0.9112299465240642,0.26969660558726344,1.2529411764705882,0.26969660558726344,1.3896256684491979,0.26969660558726344,1.0706951871657755,0.26969660558726344,0.27336898395721926,0.26969660558726344,0.9567914438502674
122,0.2719255031541003,0.9112299465240642,0.2719255031541003,1.2529411764705882,0.2719255031541003,1.3896256684491979,0.2719255031541003,1.0706951871657755,0.2719255031541003,0.27336898395721926,0.2719255031541003,0.9567914438502674
123,0.2741544007209372,0.9112299465240642,0.2741544007209372,1.2529411764705882,0.2741544007209372,1.3896256684491979,0.2741544007209372,1.0706951871657755,0.2741544007209372,0.27336898395721926,0.2741544007209372,0.9567914438502674
124,0.2763832982877741,0.9112299465240642,0.2763832982877741,1.2301604278074867,0.2763832982877741,1.3896256684491979,0.2763832982877741,1.0706951871657755,0.2763832982877741,0.27336898395721926,0.2763832982877741,0.9567914438502674
125,0.278612195854611,0.9112299465240642,0.278612195854611,1.2301604278074867,0.278612195854611,1.3896256684491979,0.278612195854611,1.0706951871657755,0.278612195854611,0.27336898395721926,0.278612195854611,0.9567914438502674
126,0.28084109342144786,0.9112299465240642,0.28084109342144786,1.2073796791443852,0.28084109342144786,1.3896256684491979,0.28084109342144786,1.0706951871657755,0.28084109342144786,0.27336898395721926,0.28084109342144786,0.9567914438502674
127,0.2830699909882847,0.9112299465240642,0.2830699909882847,1.2073796791443852,0.2830699909882847,1.3896256684491979,0.2830699909882847,1.0706951871657755,0.2830699909882847,0.27336898395721926,0.2830699909882847,0.9567914438502674
128,0.28529888855512164,0.9112299465240642,0.28529888855512164,1.2073796791443852,0.28529888855512164,1.3896256684491979,0.28529888855512164,1.0706951871657755,0.28529888855512164,0.27336898395721926,0.28529888855512164,0.9567914438502674
129,0.2875277861219585,0.9112299465240642,0.2875277861219585,1.2073796791443852,0.2875277861219585,1.3896256684491979,0.2875277861219585,1.0706951871657755,0.2875277861219585,0.27336898395721926,0.2875277861219585,0.9567914438502674
130,0.2897566836887954,0.9112299465240642,0.2897566836887954,1.2073796791443852,0.2897566836887954,1.3896256684491979,0.2897566836887954,1.0706951871657755,0.2897566836887954,0.27336898395721926,0.2897566836887954,0.9567914438502674
131,0.2919855812556323,0.9112299465240642,0.2919855812556323,1.2073796791443852,0.2919855812556323,1.3896256684491979,0.2919855812556323,1.0706951871657755,0.2919855812556323,0.27336898395721926,0.2919855812556323,0.9567914438502674
132,0.2942144788224692,0.9112299465240642,0.2942144788224692,1.2073796791443852,0.2942144788224692,1.3896256684491979,0.2942144788224692,1.0706951871657755,0.2942144788224692,0.27336898395721926,0.2942144788224692,0.9567914438502674
133,0.29644337638930607,0.9112299465240642,0.29644337638930607,1.2073796791443852,0.29644337638930607,1.3896256684491979,0.29644337638930607,1.0706951871657755,0.29644337638930607,0.27336898395721926,0.29644337638930607,0.9340106951871658
134,0.298672273956143,0.9112299465240642,0.298672273956143,1.2073796791443852,0.298672273956143,1.3896256684491979,0.298672273956143,1.0706951871657755,0.298672273956143,0.27336898395721926,0.298672273956143,0.9340106951871658
135,0.30090117152297985,0.9112299465240642,0.30090117152297985,1.2073796791443852,0.30090117152297985,1.3896256684491979,0.30090117152297985,1.0706951871657755,0.30090117152297985,0.27336898395721926,0.30090117152297985,0.9340106951871658
136,0.30313006908981677,0.9112299465240642,0.30313006908981677,1.2073796791443852,0.30313006908981677,1.3896256684491979,0.30313006908981677,1.0706951871657755,0.30313006908981677,0.27336898395721926,0.30313006908981677,0.9340106951871658
137,0.30535896665665363,0.9112299465240642,0.30535896665665363,1.2073796791443852,0.30535896665665363,1.3896256684491979,0.30535896665665363,1.0706951871657755,0.30535896665665363,0.27336898395721926,0.30535896665665363,0.9112299465240642
138,0.3075878642234905,0.9112299465240642,0.3075878642234905,1.2073796791443852,0.3075878642234905,1.3896256684491979,0.3075878642234905,1.0251336898395722,0.3075878642234905,0.27336898395721926,0.3075878642234905,0.865668449197861
139,0.3098167617903274,0.9112299465240642,0.3098167617903274,1.2073796791443852,0.3098167617903274,1.3896256684491979,0.3098167617903274,0.979572192513369,0.3098167617903274,0.27336898395721926,0.3098167617903274,0.7745454545454545
140,0.3120456593571643,0.9112299465240642,0.3120456593571643,1.2073796791443852,0.3120456593571643,1.3896256684491979,0.3120456593571643,0.9567914438502674,0.3120456593571643,0.27336898395721926,0.3120456593571643,0.751764705882353
141,0.3142745569240012,0.9112299465240642,0.3142745569240012,1.2073796791443852,0.3142745569240012,1.3896256684491979,0.3142745569240012,0.9340106951871658,0.3142745569240012,0.27336898395721926,0.3142745569240012,0.7289839572192514
142,0.31650345449083805,0.9112299465240642,0.31650345449083805,1.2073796791443852,0.31650345449083805,1.3896256684491979,0.31650345449083805,0.8884491978609627,0.31650345449083805,0.27336898395721926,0.31650345449083805,0.7289839572192514
143,0.318732352057675,0.9112299465240642,0.318732352057675,1.2073796791443852,0.318732352057675,1.3896256684491979,0.318732352057675,0.8428877005347594,0.318732352057675,0.27336898395721926,0.318732352057675,0.7289839572192514
144,0.32096124962451184,0.9112299465240642,0.32096124962451184,1.2073796791443852,0.32096124962451184,1.3896256684491979,0.32096124962451184,0.7973262032085562,0.32096124962451184,0.27336898395721926,0.32096124962451184,0.7289839572192514
145,0.32319014719134875,0.9112299465240642,0.32319014719134875,1.2073796791443852,0.32319014719134875,1.3896256684491979,0.32319014719134875,0.751764705882353,0.32319014719134875,0.27336898395721926,0.32319014719134875,0.7289839572192514
146,0.3254190447581856,0.9112299465240642,0.3254190447581856,1.2073796791443852,0.3254190447581856,1.3896256684491979,0.3254190447581856,0.7289839572192514,0.3254190447581856,0.25058823529411767,0.3254190447581856,0.7289839572192514
147,0.32764794232502253,0.9112299465240642,0.32764794232502253,1.2073796791443852,0.32764794232502253,1.3668449197860963,0.32764794232502253,0.7062032085561497,0.32764794232502253,0.25058823529411767,0.32764794232502253,0.7289839572192514
148,0.3298768398918594,0.9112299465240642,0.3298768398918594,1.2073796791443852,0.3298768398918594,1.321283422459893,0.3298768398918594,0.6834224598930482,0.3298768398918594,0.25058823529411767,0.3298768398918594,0.7289839572192514
149,0.33210573745869626,0.9112299465240642,0.33210573745869626,1.2073796791443852,0.33210573745869626,1.2985026737967915,0.33210573745869626,0.6606417112299465,0.33210573745869626,0.25058823529411767,0.33210573745869626,0.7289839572192514
150,0.3343346350255332,0.9112299465240642,0.3343346350255332,1.2073796791443852,0.3343346350255332,1.27572192513369,0.3343346350255332,0.6834224598930482,0.3343346350255332,0.25058823529411767,0.3343346350255332,0.7289839572192514
151,0.33656353259237004,0.9112299465240642,0.33656353259237004,1.2073796791443852,0.33656353259237004,1.27572192513369,0.33656353259237004,0.6834224598930482,0.33656353259237004,0.22780748663101605,0.33656353259237004,0.7289839572192514
152,0.33879243015920696,0.9112299465240642,0.33879243015920696,1.2073796791443852,0.33879243015920696,1.27572192513369,0.33879243015920696,0.7062032085561497,0.33879243015920696,0.22780748663101605,0.33879243015920696,0.7289839572192514
153,0.3410213277260438,0.9112299465240642,0.3410213277260438,1.2073796791443852,0.3410213277260438,1.27572192513369,0.3410213277260438,0.751764705882353,0.3410213277260438,0.22780748663101605,0.3410213277260438,0.7289839572192514
154,0.34325022529288074,0.9112299465240642,0.34325022529288074,1.2073796791443852,0.34325022529288074,1.27572192513369,0.34325022529288074,0.7745454545454545,0.34325022529288074,0.22780748663101605,0.34325022529288074,0.7289839572192514
155,0.3454791228597176,0.9112299465240642,0.3454791228597176,1.2073796791443852,0.3454791228597176,1.27572192513369,0.3454791228597176,0.8428877005347594,0.3454791228597176,0.22780748663101605,0.3454791228597176,0.7062032085561497
156,0.3477080204265545,0.9112299465240642,0.3477080204265545,1.2073796791443852,0.3477080204265545,1.27572192513369,0.3477080204265545,0.8884491978609627,0.3477080204265545,0.22780748663101605,0.3477080204265545,0.7062032085561497
157,0.3499369179933914,0.9112299465240642,0.3499369179933914,1.2073796791443852,0.3499369179933914,1.27572192513369,0.3499369179933914,0.9340106951871658,0.3499369179933914,0.22780748663101605,0.3499369179933914,0.7062032085561497
158,0.3521658155602283,0.9112299465240642,0.3521658155602283,1.2073796791443852,0.3521658155602283,1.27572192513369,0.3521658155602283,0.9567914438502674,0.3521658155602283,0.22780748663101605,0.3521658155602283,0.7062032085561497
159,0.35439471312706516,0.9112299465240642,0.35439471312706516,1.2073796791443852,0.35439471312706516,1.27572192513369,0.35439471312706516,0.979572192513369,0.35439471312706516,0.22780748663101605,0.35439471312706516,0.7062032085561497
160,0.356623610693902,0.9112299465240642,0.356623610693902,1.2073796791443852,0.356623610693902,1.27572192513369,0.356623610693902,1.0251336898395722,0.356623610693902,0.22780748663101605,0.356623610693902,0.7062032085561497
161,0.35885250826073894,0.9112299465240642,0.35885250826073894,1.2073796791443852,0.35885250826073894,1.27572192513369,0.35885250826073894,1.093475935828877,0.35885250826073894,0.22780748663101605,0.35885250826073894,0.7062032085561497
162,0.3610814058275758,0.9112299465240642,0.3610814058275758,1.1845989304812834,0.3610814058275758,1.27572192513369,0.3610814058275758,1.1845989304812834,0.3610814058275758,0.22780748663101605,0.3610814058275758,0.7062032085561497
163,0.3633103033944127,0.9112299465240642,0.3633103033944127,1.1845989304812834,0.3633103033944127,1.27572192513369,0.3633103033944127,1.2073796791443852,0.3633103033944127,0.20502673796791446,0.3633103033944127,0.7062032085561497
164,0.3655392009612496,0.9112299465240642,0.3655392009612496,1.1845989304812834,0.3655392009612496,1.27572192513369,0.3655392009612496,1.2301604278074867,0.3655392009612496,0.18224598930481284,0.3655392009612496,0.7062032085561497
165,0.3677680985280865,0.9112299465240642,0.3677680985280865,1.1845989304812834,0.3677680985280865,1.27572192513369,0.3677680985280865,1.2529411764705882,0.3677680985280865,0.15946524064171125,0.3677680985280865,0.7062032085561497
166,0.36999699609492337,0.9112299465240642,0.36999699609492337,1.1845989304812834,0.36999699609492337,1.27572192513369,0.36999699609492337,1.2529411764705882,0.36999699609492337,0.13668449197860963,0.36999699609492337,0.7062032085561497
167,0.3722258936617603,0.8884491978609627,0.3722258936617603,1.1845989304812834,0.3722258936617603,1.27572192513369,0.3722258936617603,1.2529411764705882,0.3722258936617603,0.11390374331550802,0.3722258936617603,0.7062032085561497
168,0.37445479122859715,0.8884491978609627,0.37445479122859715,1.1845989304812834,0.37445479122859715,1.27572192513369,0.37445479122859715,1.2529411764705882,0.37445479122859715,0.09112299465240642,0.37445479122859715,0.7062032085561497
169,0.37668368879543407,0.8884491978609627,0.37668368879543407,1.1845989304812834,0.37668368879543407,1.27572192513369,0.37668368879543407,1.27572192513369,0.37668368879543407,0.06834224598930481,0.37668368879543407,0.7062032085561497
170,0.37891258636227093,0.9112299465240642,0.37891258636227093,1.1845989304812834,0.37891258636227093,1.2529411764705882,0.37891258636227093,1.27572192513369,0.37891258636227093,0.06834224598930481,0.37891258636227093,0.7062032085561497
171,0.3811414839291078,0.9112299465240642,0.3811414839291078,1.1845989304812834,0.3811414839291078,1.2301604278074867,0.3811414839291078,1.27572192513369,0.3811414839291078,0.06834224598930481,0.3811414839291078,0.7062032085561497
172,0.3833703814959447,0.9112299465240642,0.3833703814959447,1.1845989304812834,0.3833703814959447,1.2301604278074867,0.3833703814959447,1.2985026737967915,0.3833703814959447,0.04556149732620321,0.3833703814959447,0.7062032085561497
173,0.3855992790627816,0.9112299465240642,0.3855992790627816,1.1845989304812834,0.3855992790627816,1.2301604278074867,0.3855992790627816,1.2985026737967915,0.3855992790627816,0.04556149732620321,0.3855992790627816,0.7062032085561497
174,0.3878281766296185,0.9112299465240642,0.3878281766296185,1.1845989304812834,0.3878281766296185,1.2301604278074867,0.3878281766296185,1.321283422459893,0.3878281766296185,0.04556149732620321,0.3878281766296185,0.7062032085561497
175,0.39005707419645536,0.9340106951871658,0.39005707419645536,1.1845989304812834,0.39005707419645536,1.2301604278074867,0.39005707419645536,1.3440641711229948,0.39005707419645536,0.04556149732620321,0.39005707419645536,0.7062032085561497
176,0.3922859717632923,0.9340106951871658,0.3922859717632923,1.1845989304812834,0.3922859717632923,1.2301604278074867,0.3922859717632923,1.3668449197860963,0.3922859717632923,0.04556149732620321,0.3922859717632923,0.7062032085561497
177,0.39451486933012914,0.9340106951871658,0.39451486933012914,1.1845989304812834,0.39451486933012914,1.2301604278074867,0.39451486933012914,1.3668449197860963,0.39451486933012914,0.04556149732620321,0.39451486933012914,0.7062032085561497
178,0.39674376689696605,0.9340106951871658,0.39674376689696605,1.1845989304812834,0.39674376689696605,1.2301604278074867,0.39674376689696605,1.3896256684491979,0.39674376689696605,0.022780748663101605,0.39674376689696605,0.7062032085561497
179,0.3989726644638029,0.9340106951871658,0.3989726644638029,1.1845989304812834,0.3989726644638029,1.2073796791443852,0.3989726644638029,1.4124064171122994,0.3989726644638029,0.022780748663101605,0.3989726644638029,0.7062032085561497
180,0.4012015620306398,0.9340106951871658,0.4012015620306398,1.1845989304812834,0.4012015620306398,1.2073796791443852,0.4012015620306398,1.4351871657754012,0.4012015620306398,0.022780748663101605,0.4012015620306398,0.7062032085561497
181,0.4034304595974767,0.9340106951871658,0.4034304595974767,1.1618181818181819,0.4034304595974767,1.2073796791443852,0.4034304595974767,1.4579679144385027,0.4034304595974767,0.022780748663101605,0.4034304595974767,0.7062032085561497
182,0.40565935716431356,0.9340106951871658,0.40565935716431356,1.1845989304812834,0.40565935716431356,1.2073796791443852,0.40565935716431356,1.4807486631016042,0.40565935716431356,0.04556149732620321,0.40565935716431356,0.7062032085561497
183,0.4078882547311505,0.9340106951871658,0.4078882547311505,1.1845989304812834,0.4078882547311505,1.2073796791443852,0.4078882547311505,1.503529411764706,0.4078882547311505,0.04556149732620321,0.4078882547311505,0.7062032085561497
184,0.41011715229798734,0.9340106951871658,0.41011715229798734,1.1845989304812834,0.41011715229798734,1.2301604278074867,0.41011715229798734,1.503529411764706,0.41011715229798734,0.04556149732620321,0.41011715229798734,0.7289839572192514
185,0.41234604986482426,0.9340106951871658,0.41234604986482426,1.1845989304812834,0.41234604986482426,1.2529411764705882,0.41234604986482426,1.5263101604278075,0.41234604986482426,0.04556149732620321,0.41234604986482426,0.7289839572192514
186,0.4145749474316611,0.9340106951871658,0.4145749474316611,1.1845989304812834,0.4145749474316611,1.2529411764705882,0.4145749474316611,1.5263101604278075,0.4145749474316611,0.04556149732620321,0.4145749474316611,0.7289839572192514
187,0.41680384499849804,0.9340106951871658,0.41680384499849804,1.1845989304812834,0.41680384499849804,1.2529411764705882,0.41680384499849804,1.5263101604278075,0.41680384499849804,0.04556149732620321,0.41680384499849804,0.7289839572192514
188,0.4190327425653349,0.9340106951871658,0.4190327425653349,1.1845989304812834,0.4190327425653349,1.2529411764705882,0.4190327425653349,1.5263101604278075,0.4190327425653349,0.04556149732620321,0.4190327425653349,0.7289839572192514
189,0.4212616401321718,0.9340106951871658,0.4212616401321718,1.1845989304812834,0.4212616401321718,1.2529411764705882,0.4212616401321718,1.5263101604278075,0.4212616401321718,0.04556149732620321,0.4212616401321718,0.7289839572192514
190,0.4234905376990087,0.9340106951871658,0.4234905376990087,1.1845989304812834,0.4234905376990087,1.2529411764705882,0.4234905376990087,1.5263101604278075,0.4234905376990087,0.04556149732620321,0.4234905376990087,0.7289839572192514
191,0.42571943526584555,0.9340106951871658,0.42571943526584555,1.1845989304812834,0.42571943526584555,1.2529411764705882,0.42571943526584555,1.5263101604278075,0.42571943526584555,0.04556149732620321,0.42571943526584555,0.7289839572192514
192,0.42794833283268247,0.9340106951871658,0.42794833283268247,1.1845989304812834,0.42794833283268247,1.2529411764705882,0.42794833283268247,1.5263101604278075,0.42794833283268247,0.04556149732620321,0.42794833283268247,0.7289839572192514
193,0.43017723039951933,0.9340106951871658,0.43017723039951933,1.1845989304812834,0.43017723039951933,1.2529411764705882,0.43017723039951933,1.5263101604278075,0.43017723039951933,0.04556149732620321,0.43017723039951933,0.7289839572192514
194,0.43240612796635625,0.9340106951871658,0.43240612796635625,1.1845989304812834,0.43240612796635625,1.2529411764705882,0.43240612796635625,1.5263101604278075,0.43240612796635625,0.04556149732620321,0.43240612796635625,0.7289839572192514
195,0.4346350255331931,0.9340106951871658,0.4346350255331931,1.1845989304812834,0.4346350255331931,1.2529411764705882,0.4346350255331931,1.5263101604278075,0.4346350255331931,0.04556149732620321,0.4346350255331931,0.7289839572192514
196,0.43686392310003,0.9340106951871658,0.43686392310003,1.1845989304812834,0.43686392310003,1.2529411764705882,0.43686392310003,1.5263101604278075,0.43686392310003,0.04556149732620321,0.43686392310003,0.7289839572192514
197,0.4390928206668669,0.9340106951871658,0.4390928206668669,1.1845989304812834,0.4390928206668669,1.2529411764705882,0.4390928206668669,1.5263101604278075,0.4390928206668669,0.04556149732620321,0.4390928206668669,0.7289839572192514
198,0.4413217182337038,0.9340106951871658,0.4413217182337038,1.1845989304812834,0.4413217182337038,1.2529411764705882,0.4413217182337038,1.5263101604278075,0.4413217182337038,0.04556149732620321,0.4413217182337038,0.7289839572192514
199,0.44355061580054067,0.9340106951871658,0.44355061580054067,1.1845989304812834,0.44355061580054067,1.2529411764705882,0.44355061580054067,1.5263101604278075,0.44355061580054067,0.04556149732620321,0.44355061580054067,0.7289839572192514
200,0.4457795133673776,0.9340106951871658,0.4457795133673776,1.2073796791443852,0.4457795133673776,1.2529411764705882,0.4457795133673776,1.5263101604278075,0.4457795133673776,0.04556149732620321,0.4457795133673776,0.7289839572192514
201,0.44800841093421445,0.9340106951871658,0.44800841093421445,1.2073796791443852,0.44800841093421445,1.2529411764705882,0.44800841093421445,1.5263101604278075,0.44800841093421445,0.04556149732620321,0.44800841093421445,0.7289839572192514
202,0.4502373085010513,0.9340106951871658,0.4502373085010513,1.2073796791443852,0.4502373085010513,1.2529411764705882,0.4502373085010513,1.5263101604278075,0.4502373085010513,0.04556149732620321,0.4502373085010513,0.7289839572192514
203,0.45246620606788823,0.9340106951871658,0.45246620606788823,1.2073796791443852,0.45246620606788823,1.2529411764705882,0.45246620606788823,1.5263101604278075,0.45246620606788823,0.04556149732620321,0.45246620606788823,0.7289839572192514
204,0.4546951036347251,0.9340106951871658,0.4546951036347251,1.2073796791443852,0.4546951036347251,1.2529411764705882,0.4546951036347251,1.5263101604278075,0.4546951036347251,0.04556149732620321,0.4546951036347251,0.7289839572192514
205,0.456924001201562,0.9340106951871658,0.456924001201562,1.2073796791443852,0.456924001201562,1.2301604278074867,0.456924001201562,1.5263101604278075,0.456924001201562,0.04556149732620321,0.456924001201562,0.7289839572192514
206,0.4591528987683989,0.9340106951871658,0.4591528987683989,1.2073796791443852,0.4591528987683989,1.2301604278074867,0.4591528987683989,1.5263101604278075,0.4591528987683989,0.04556149732620321,0.4591528987683989,0.7289839572192514
207,0.4613817963352358,0.9340106951871658,0.4613817963352358,1.2073796791443852,0.4613817963352358,1.2073796791443852,0.4613817963352358,1.503529411764706,0.4613817963352358,0.022780748663101605,0.4613817963352358,0.7289839572192514
208,0.46361069390207266,0.9340106951871658,0.46361069390207266,1.2073796791443852,0.46361069390207266,1.2073796791443852,0.46361069390207266,1.5263101604278075,0.46361069390207266,0.022780748663101605,0.46361069390207266,0.7062032085561497
209,0.4658395914689096,0.9340106951871658,0.4658395914689096,1.2073796791443852,0.4658395914689096,1.2073796791443852,0.4658395914689096,1.5263101604278075,0.4658395914689096,0.04556149732620321,0.4658395914689096,0.7062032085561497
210,0.46806848903574644,0.9340106951871658,0.46806848903574644,1.2073796791443852,0.46806848903574644,1.2073796791443852,0.46806848903574644,1.549090909090909,0.46806848903574644,0.04556149732620321,0.46806848903574644,0.7062032085561497
211,0.47029738660258336,0.9340106951871658,0.47029738660258336,1.2301604278074867,0.47029738660258336,1.2073796791443852,0.47029738660258336,1.549090909090909,0.47029738660258336,0.04556149732620321,0.47029738660258336,0.7062032085561497
212,0.4725262841694202,0.9340106951871658,0.4725262841694202,1.2301604278074867,0.4725262841694202,1.2073796791443852,0.4725262841694202,1.5718716577540108,0.4725262841694202,0.04556149732620321,0.4725262841694202,0.7289839572192514
213,0.4747551817362571,0.9340106951871658,0.4747551817362571,1.2301604278074867,0.4747551817362571,1.2073796791443852,0.4747551817362571,1.5718716577540108,0.4747551817362571,0.06834224598930481,0.4747551817362571,0.7289839572192514
214,0.476984079303094,0.9340106951871658,0.476984079303094,1.2301604278074867,0.476984079303094,1.2073796791443852,0.476984079303094,1.5946524064171124,0.476984079303094,0.06834224598930481,0.476984079303094,0.7289839572192514
215,0.47921297686993086,0.9112299465240642,0.47921297686993086,1.2301604278074867,0.47921297686993086,1.2073796791443852,0.47921297686993086,1.617433155080214,0.47921297686993086,0.06834224598930481,0.47921297686993086,0.7289839572192514
216,0.4814418744367678,0.9112299465240642,0.4814418744367678,1.2301604278074867,0.4814418744367678,1.2073796791443852,0.4814418744367678,1.6402139037433157,0.4814418744367678,0.06834224598930481,0.4814418744367678,0.7289839572192514
217,0.48367077200360464,0.8884491978609627,0.48367077200360464,1.2301604278074867,0.48367077200360464,1.2073796791443852,0.48367077200360464,1.6402139037433157,0.48367077200360464,0.06834224598930481,0.48367077200360464,0.7289839572192514
218,0.48589966957044156,0.8884491978609627,0.48589966957044156,1.2301604278074867,0.48589966957044156,1.2073796791443852,0.48589966957044156,1.6629946524064172,0.48589966957044156,0.06834224598930481,0.48589966957044156,0.7289839572192514
219,0.4881285671372784,0.865668449197861,0.4881285671372784,1.2301604278074867,0.4881285671372784,1.2073796791443852,0.4881285671372784,1.6857754010695187,0.4881285671372784,0.06834224598930481,0.4881285671372784,0.7289839572192514
220,0.49035746470411534,0.865668449197861,0.49035746470411534,1.2301604278074867,0.49035746470411534,1.2073796791443852,0.49035746470411534,1.6857754010695187,0.49035746470411534,0.06834224598930481,0.49035746470411534,0.7289839572192514
221,0.4925863622709522,0.865668449197861,0.4925863622709522,1.2301604278074867,0.4925863622709522,1.2073796791443852,0.4925863622709522,1.7085561497326205,0.4925863622709522,0.06834224598930481,0.4925863622709522,0.7289839572192514
222,0.4948152598377891,0.865668449197861,0.4948152598377891,1.2301604278074867,0.4948152598377891,1.2073796791443852,0.4948152598377891,1.7085561497326205,0.4948152598377891,0.06834224598930481,0.4948152598377891,0.7289839572192514
223,0.497044157404626,0.8884491978609627,0.497044157404626,1.2301604278074867,0.497044157404626,1.2073796791443852,0.497044157404626,1.731336898395722,0.497044157404626,0.06834224598930481,0.497044157404626,0.7289839572192514
224,0.49927305497146285,0.8884491978609627,0.49927305497146285,1.2301604278074867,0.49927305497146285,1.2073796791443852,0.49927305497146285,1.731336898395722,0.49927305497146285,0.06834224598930481,0.49927305497146285,0.7289839572192514
225,0.5015019525382998,0.9112299465240642,0.5015019525382998,1.2301604278074867,0.5015019525382998,1.2073796791443852,0.5015019525382998,1.731336898395722,0.5015019525382998,0.06834224598930481,0.5015019525382998,0.7289839572192514
226,0.5037308501051366,0.9112299465240642,0.5037308501051366,1.2301604278074867,0.5037308501051366,1.2073796791443852,0.5037308501051366,1.7541176470588236,0.5037308501051366,0.06834224598930481,0.5037308501051366,0.7289839572192514
227,0.5059597476719735,0.9112299465240642,0.5059597476719735,1.2301604278074867,0.5059597476719735,1.1845989304812834,0.5059597476719735,1.7541176470588236,0.5059597476719735,0.06834224598930481,0.5059597476719735,0.7289839572192514
228,0.5081886452388105,0.9340106951871658,0.5081886452388105,1.2301604278074867,0.5081886452388105,1.1845989304812834,0.5081886452388105,1.7541176470588236,0.5081886452388105,0.06834224598930481,0.5081886452388105,0.7289839572192514
229,0.5104175428056473,0.9340106951871658,0.5104175428056473,1.2301604278074867,0.5104175428056473,1.1618181818181819,0.5104175428056473,1.7541176470588236,0.5104175428056473,0.06834224598930481,0.5104175428056473,0.7289839572192514
230,0.5126464403724842,0.9340106951871658,0.5126464403724842,1.2301604278074867,0.5126464403724842,1.1618181818181819,0.5126464403724842,1.7541176470588236,0.5126464403724842,0.06834224598930481,0.5126464403724842,0.7289839572192514
231,0.514875337939321,0.9567914438502674,0.514875337939321,1.2301604278074867,0.514875337939321,1.1618181818181819,0.514875337939321,1.7541176470588236,0.514875337939321,0.06834224598930481,0.514875337939321,0.7289839572192514
232,0.517104235506158,0.9567914438502674,0.517104235506158,1.2301604278074867,0.517104235506158,1.1618181818181819,0.517104235506158,1.7541176470588236,0.517104235506158,0.06834224598930481,0.517104235506158,0.7289839572192514
233,0.5193331330729949,0.9567914438502674,0.5193331330729949,1.2301604278074867,0.5193331330729949,1.1618181818181819,0.5193331330729949,1.7541176470588236,0.5193331330729949,0.06834224598930481,0.5193331330729949,0.7289839572192514
234,0.5215620306398318,0.9567914438502674,0.5215620306398318,1.2301604278074867,0.5215620306398318,1.1618181818181819,0.5215620306398318,1.7541176470588236,0.5215620306398318,0.06834224598930481,0.5215620306398318,0.7062032085561497
235,0.5237909282066686,0.9567914438502674,0.5237909282066686,1.2301604278074867,0.5237909282066686,1.1618181818181819,0.5237909282066686,1.7541176470588236,0.5237909282066686,0.06834224598930481,0.5237909282066686,0.7062032085561497
236,0.5260198257735055,0.9567914438502674,0.5260198257735055,1.2073796791443852,0.5260198257735055,1.1618181818181819,0.5260198257735055,1.7541176470588236,0.5260198257735055,0.06834224598930481,0.5260198257735055,0.7062032085561497
237,0.5282487233403425,0.9567914438502674,0.5282487233403425,1.2301604278074867,0.5282487233403425,1.1618181818181819,0.5282487233403425,1.7541176470588236,0.5282487233403425,0.06834224598930481,0.5282487233403425,0.7062032085561497
238,0.5304776209071793,0.9567914438502674,0.5304776209071793,1.2301604278074867,0.5304776209071793,1.1845989304812834,0.5304776209071793,1.7541176470588236,0.5304776209071793,0.06834224598930481,0.5304776209071793,0.7289839572192514
239,0.5327065184740162,0.9567914438502674,0.5327065184740162,1.2301604278074867,0.5327065184740162,1.1845989304812834,0.5327065184740162,1.7541176470588236,0.5327065184740162,0.06834224598930481,0.5327065184740162,0.7289839572192514
240,0.534935416040853,0.9567914438502674,0.534935416040853,1.2301604278074867,0.534935416040853,1.2073796791443852,0.534935416040853,1.7541176470588236,0.534935416040853,0.06834224598930481,0.534935416040853,0.7745454545454545
241,0.53716431360769,0.9567914438502674,0.53716431360769,1.2301604278074867,0.53716431360769,1.2301604278074867,0.53716431360769,1.7541176470588236,0.53716431360769,0.06834224598930481,0.53716431360769,0.7745454545454545
242,0.5393932111745269,0.9567914438502674,0.5393932111745269,1.2301604278074867,0.5393932111745269,1.2529411764705882,0.5393932111745269,1.7541176470588236,0.5393932111745269,0.06834224598930481,0.5393932111745269,0.7745454545454545
243,0.5416221087413637,0.9567914438502674,0.5416221087413637,1.2301604278074867,0.5416221087413637,1.2529411764705882,0.5416221087413637,1.7541176470588236,0.5416221087413637,0.06834224598930481,0.5416221087413637,0.7745454545454545
244,0.5438510063082006,0.9567914438502674,0.5438510063082006,1.2301604278074867,0.5438510063082006,1.27572192513369,0.5438510063082006,1.7541176470588236,0.5438510063082006,0.06834224598930481,0.5438510063082006,0.7745454545454545
245,0.5460799038750375,0.9567914438502674,0.5460799038750375,1.2301604278074867,0.5460799038750375,1.2985026737967915,0.5460799038750375,1.7541176470588236,0.5460799038750375,0.06834224598930481,0.5460799038750375,0.7745454545454545
246,0.5483088014418744,0.9567914438502674,0.5483088014418744,1.2301604278074867,0.5483088014418744,1.2985026737967915,0.5483088014418744,1.7541176470588236,0.5483088014418744,0.06834224598930481,0.5483088014418744,0.7745454545454545
247,0.5505376990087113,0.9567914438502674,0.5505376990087113,1.2301604278074867,0.5505376990087113,1.2985026737967915,0.5505376990087113,1.7768983957219253,0.5505376990087113,0.06834224598930481,0.5505376990087113,0.7745454545454545
248,0.5527665965755482,0.9567914438502674,0.5527665965755482,1.2301604278074867,0.5527665965755482,1.2985026737967915,0.5527665965755482,1.7768983957219253,0.5527665965755482,0.06834224598930481,0.5527665965755482,0.7745454545454545
249,0.554995494142385,0.9567914438502674,0.554995494142385,1.2301604278074867,0.554995494142385,1.2985026737967915,0.554995494142385,1.7768983957219253,0.554995494142385,0.06834224598930481,0.554995494142385,0.7745454545454545
250,0.557224391709222,0.9567914438502674,0.557224391709222,1.2301604278074867,0.557224391709222,1.2985026737967915,0.557224391709222,1.7768983957219253,0.557224391709222,0.06834224598930481,0.557224391709222,0.7745454545454545
251,0.5594532892760589,0.9567914438502674,0.5594532892760589,1.2301604278074867,0.5594532892760589,1.2985026737967915,0.5594532892760589,1.7768983957219253,0.5594532892760589,0.06834224598930481,0.5594532892760589,0.7745454545454545
252,0.5616821868428957,0.9567914438502674,0.5616821868428957,1.2301604278074867,0.5616821868428957,1.2985026737967915,0.5616821868428957,1.7768983957219253,0.5616821868428957,0.06834224598930481,0.5616821868428957,0.7745454545454545
253,0.5639110844097326,0.9567914438502674,0.5639110844097326,1.2301604278074867,0.5639110844097326,1.2985026737967915,0.5639110844097326,1.7768983957219253,0.5639110844097326,0.06834224598930481,0.5639110844097326,0.7745454545454545
254,0.5661399819765695,0.9567914438502674,0.5661399819765695,1.2301604278074867,0.5661399819765695,1.2985026737967915,0.5661399819765695,1.7768983957219253,0.5661399819765695,0.06834224598930481,0.5661399819765695,0.7745454545454545
255,0.5683688795434064,0.9567914438502674,0.5683688795434064,1.2301604278074867,0.5683688795434064,1.2985026737967915,0.5683688795434064,1.7768983957219253,0.5683688795434064,0.06834224598930481,0.5683688795434064,0.7745454545454545
256,0.5705977771102433,0.9567914438502674,0.5705977771102433,1.2301604278074867,0.5705977771102433,1.2985026737967915,0.5705977771102433,1.7768983957219253,0.5705977771102433,0.06834224598930481,0.5705977771102433,0.7745454545454545
257,0.5728266746770801,0.9567914438502674,0.5728266746770801,1.2301604278074867,0.5728266746770801,1.2985026737967915,0.5728266746770801,1.7996791443850269,0.5728266746770801,0.06834224598930481,0.5728266746770801,0.7745454545454545
258,0.575055572243917,0.9567914438502674,0.575055572243917,1.2301604278074867,0.575055572243917,1.2985026737967915,0.575055572243917,1.7996791443850269,0.575055572243917,0.06834224598930481,0.575055572243917,0.7745454545454545
259,0.577284469810754,0.9567914438502674,0.577284469810754,1.2301604278074867,0.577284469810754,1.2985026737967915,0.577284469810754,1.7996791443850269,0.577284469810754,0.06834224598930481,0.577284469810754,0.751764705882353
260,0.5795133673775908,0.9567914438502674,0.5795133673775908,1.2301604278074867,0.5795133673775908,1.2985026737967915,0.5795133673775908,1.8224598930481284,0.5795133673775908,0.06834224598930481,0.5795133673775908,0.751764705882353
261,0.5817422649444277,0.9567914438502674,0.5817422649444277,1.2073796791443852,0.5817422649444277,1.2985026737967915,0.5817422649444277,1.8224598930481284,0.5817422649444277,0.06834224598930481,0.5817422649444277,0.7289839572192514
262,0.5839711625112646,0.9567914438502674,0.5839711625112646,1.2073796791443852,0.5839711625112646,1.2985026737967915,0.5839711625112646,1.8680213903743317,0.5839711625112646,0.06834224598930481,0.5839711625112646,0.7062032085561497
263,0.5862000600781015,0.9567914438502674,0.5862000600781015,1.2073796791443852,0.5862000600781015,1.2985026737967915,0.5862000600781015,1.9135828877005348,0.5862000600781015,0.06834224598930481,0.5862000600781015,0.7062032085561497
264,0.5884289576449384,0.9567914438502674,0.5884289576449384,1.2073796791443852,0.5884289576449384,1.2529411764705882,0.5884289576449384,1.9819251336898396,0.5884289576449384,0.06834224598930481,0.5884289576449384,0.6834224598930482
265,0.5906578552117753,0.9567914438502674,0.5906578552117753,1.2073796791443852,0.5906578552117753,1.2301604278074867,0.5906578552117753,2.0502673796791444,0.5906578552117753,0.06834224598930481,0.5906578552117753,0.6834224598930482
266,0.5928867527786121,0.9567914438502674,0.5928867527786121,1.2073796791443852,0.5928867527786121,1.2301604278074867,0.5928867527786121,2.141390374331551,0.5928867527786121,0.09112299465240642,0.5928867527786121,0.6834224598930482
267,0.595115650345449,0.9567914438502674,0.595115650345449,1.2073796791443852,0.595115650345449,1.2073796791443852,0.595115650345449,2.209732620320856,0.595115650345449,0.11390374331550802,0.595115650345449,0.6834224598930482
268,0.597344547912286,0.9567914438502674,0.597344547912286,1.2073796791443852,0.597344547912286,1.1845989304812834,0.597344547912286,2.255294117647059,0.597344547912286,0.13668449197860963,0.597344547912286,0.7062032085561497
269,0.5995734454791228,0.9567914438502674,0.5995734454791228,1.2073796791443852,0.5995734454791228,1.1845989304812834,0.5995734454791228,2.2780748663101607,0.5995734454791228,0.18224598930481284,0.5995734454791228,0.7062032085561497
270,0.6018023430459597,0.9567914438502674,0.6018023430459597,1.2073796791443852,0.6018023430459597,1.1845989304812834,0.6018023430459597,2.2780748663101607,0.6018023430459597,0.25058823529411767,0.6018023430459597,0.7062032085561497
271,0.6040312406127966,0.9567914438502674,0.6040312406127966,1.2073796791443852,0.6040312406127966,1.1618181818181819,0.6040312406127966,2.2780748663101607,0.6040312406127966,0.25058823529411767,0.6040312406127966,0.7289839572192514
272,0.6062601381796335,0.9567914438502674,0.6062601381796335,1.2073796791443852,0.6062601381796335,1.1618181818181819,0.6062601381796335,2.2780748663101607,0.6062601381796335,0.25058823529411767,0.6062601381796335,0.751764705882353
273,0.6084890357464704,0.9567914438502674,0.6084890357464704,1.1845989304812834,0.6084890357464704,1.1618181818181819,0.6084890357464704,2.2780748663101607,0.6084890357464704,0.25058823529411767,0.6084890357464704,0.7745454545454545
274,0.6107179333133073,0.9567914438502674,0.6107179333133073,1.1845989304812834,0.6107179333133073,1.1618181818181819,0.6107179333133073,2.2780748663101607,0.6107179333133073,0.25058823529411767,0.6107179333133073,0.7973262032085562
275,0.6129468308801441,0.9567914438502674,0.6129468308801441,1.1845989304812834,0.6129468308801441,1.1618181818181819,0.6129468308801441,2.2780748663101607,0.6129468308801441,0.25058823529411767,0.6129468308801441,0.7973262032085562
276,0.615175728446981,0.9567914438502674,0.615175728446981,1.1845989304812834,0.615175728446981,1.1618181818181819,0.615175728446981,2.2780748663101607,0.615175728446981,0.25058823529411767,0.615175728446981,0.7973262032085562
277,0.617404626013818,0.9567914438502674,0.617404626013818,1.1845989304812834,0.617404626013818,1.1618181818181819,0.617404626013818,2.2780748663101607,0.617404626013818,0.25058823529411767,0.617404626013818,0.7973262032085562
278,0.6196335235806548,0.9567914438502674,0.6196335235806548,1.1845989304812834,0.6196335235806548,1.1618181818181819,0.6196335235806548,2.2780748663101607,0.6196335235806548,0.25058823529411767,0.6196335235806548,0.7973262032085562
279,0.6218624211474917,0.9567914438502674,0.6218624211474917,1.1845989304812834,0.6218624211474917,1.1845989304812834,0.6218624211474917,2.2780748663101607,0.6218624211474917,0.25058823529411767,0.6218624211474917,0.7973262032085562
280,0.6240913187143285,0.9567914438502674,0.6240913187143285,1.1845989304812834,0.6240913187143285,1.1845989304812834,0.6240913187143285,2.2780748663101607,0.6240913187143285,0.25058823529411767,0.6240913187143285,0.7973262032085562
281,0.6263202162811655,0.9567914438502674,0.6263202162811655,1.1845989304812834,0.6263202162811655,1.1845989304812834,0.6263202162811655,2.2780748663101607,0.6263202162811655,0.25058823529411767,0.6263202162811655,0.7973262032085562
282,0.6285491138480024,0.9567914438502674,0.6285491138480024,1.1845989304812834,0.6285491138480024,1.1845989304812834,0.6285491138480024,2.2780748663101607,0.6285491138480024,0.25058823529411767,0.6285491138480024,0.7973262032085562
283,0.6307780114148392,0.9567914438502674,0.6307780114148392,1.1845989304812834,0.6307780114148392,1.1845989304812834,0.6307780114148392,2.2780748663101607,0.6307780114148392,0.25058823529411767,0.6307780114148392,0.7973262032085562
284,0.6330069089816761,0.9567914438502674,0.6330069089816761,1.1845989304812834,0.6330069089816761,1.1845989304812834,0.6330069089816761,2.2780748663101607,0.6330069089816761,0.25058823529411767,0.6330069089816761,0.7973262032085562
285,0.6352358065485131,0.9567914438502674,0.6352358065485131,1.1845989304812834,0.6352358065485131,1.1845989304812834,0.6352358065485131,2.2780748663101607,0.6352358065485131,0.25058823529411767,0.6352358065485131,0.7973262032085562
286,0.63746470411535,0.9567914438502674,0.63746470411535,1.1845989304812834,0.63746470411535,1.1845989304812834,0.63746470411535,2.2780748663101607,0.63746470411535,0.25058823529411767,0.63746470411535,0.7973262032085562
287,0.6396936016821868,0.9567914438502674,0.6396936016821868,1.1845989304812834,0.6396936016821868,1.1845989304812834,0.6396936016821868,2.2780748663101607,0.6396936016821868,0.25058823529411767,0.6396936016821868,0.7973262032085562
288,0.6419224992490237,0.9567914438502674,0.6419224992490237,1.1845989304812834,0.6419224992490237,1.1845989304812834,0.6419224992490237,2.2780748663101607,0.6419224992490237,0.25058823529411767,0.6419224992490237,0.7973262032085562
289,0.6441513968158605,0.9567914438502674,0.6441513968158605,1.1845989304812834,0.6441513968158605,1.1845989304812834,0.6441513968158605,2.2780748663101607,0.6441513968158605,0.25058823529411767,0.6441513968158605,0.7973262032085562
290,0.6463802943826975,0.9567914438502674,0.6463802943826975,1.1845989304812834,0.6463802943826975,1.1845989304812834,0.6463802943826975,2.2780748663101607,0.6463802943826975,0.18224598930481284,0.6463802943826975,0.7973262032085562
291,0.6486091919495344,0.9567914438502674,0.6486091919495344,1.1845989304812834,0.6486091919495344,1.2073796791443852,0.6486091919495344,2.2780748663101607,0.6486091919495344,0.13668449197860963,0.6486091919495344,0.7973262032085562
292,0.6508380895163712,0.9567914438502674,0.6508380895163712,1.1845989304812834,0.6508380895163712,1.2073796791443852,0.6508380895163712,2.2780748663101607,0.6508380895163712,0.11390374331550802,0.6508380895163712,0.7973262032085562
293,0.6530669870832081,0.9567914438502674,0.6530669870832081,1.1618181818181819,0.6530669870832081,1.2073796791443852,0.6530669870832081,2.255294117647059,0.6530669870832081,0.09112299465240642,0.6530669870832081,0.7745454545454545
294,0.6552958846500451,0.9567914438502674,0.6552958846500451,1.1618181818181819,0.6552958846500451,1.2301604278074867,0.6552958846500451,2.255294117647059,0.6552958846500451,0.11390374331550802,0.6552958846500451,0.751764705882353
295,0.6575247822168819,0.9567914438502674,0.6575247822168819,1.1618181818181819,0.6575247822168819,1.2301604278074867,0.6575247822168819,2.232513368983957,0.6575247822168819,0.11390374331550802,0.6575247822168819,0.7289839572192514
296,0.6597536797837188,0.9567914438502674,0.6597536797837188,1.1618181818181819,0.6597536797837188,1.2529411764705882,0.6597536797837188,2.186951871657754,0.6597536797837188,0.11390374331550802,0.6597536797837188,0.7062032085561497
297,0.6619825773505557,0.9567914438502674,0.6619825773505557,1.1845989304812834,0.6619825773505557,1.2529411764705882,0.6619825773505557,2.1641711229946523,0.6619825773505557,0.11390374331550802,0.6619825773505557,0.7289839572192514
298,0.6642114749173925,0.9567914438502674,0.6642114749173925,1.1845989304812834,0.6642114749173925,1.27572192513369,0.6642114749173925,2.1186096256684492,0.6642114749173925,0.13668449197860963,0.6642114749173925,0.7289839572192514
299,0.6664403724842295,0.9567914438502674,0.6664403724842295,1.1845989304812834,0.6664403724842295,1.27572192513369,0.6664403724842295,2.0958288770053475,0.6664403724842295,0.13668449197860963,0.6664403724842295,0.751764705882353
300,0.6686692700510664,0.9567914438502674,0.6686692700510664,1.1845989304812834,0.6686692700510664,1.2985026737967915,0.6686692700510664,2.073048128342246,0.6686692700510664,0.13668449197860963,0.6686692700510664,0.7745454545454545
301,0.6708981676179032,0.9567914438502674,0.6708981676179032,1.2073796791443852,0.6708981676179032,1.2985026737967915,0.6708981676179032,2.073048128342246,0.6708981676179032,0.15946524064171125,0.6708981676179032,0.7973262032085562
302,0.6731270651847401,0.9567914438502674,0.6731270651847401,1.2301604278074867,0.6731270651847401,1.321283422459893,0.6731270651847401,2.0502673796791444,0.6731270651847401,0.15946524064171125,0.6731270651847401,0.8201069518716578
303,0.675355962751577,0.9567914438502674,0.675355962751577,1.2301604278074867,0.675355962751577,1.3440641711229948,0.675355962751577,2.0502673796791444,0.675355962751577,0.18224598930481284,0.675355962751577,0.8428877005347594
304,0.6775848603184139,0.979572192513369,0.6775848603184139,1.2529411764705882,0.6775848603184139,1.3668449197860963,0.6775848603184139,2.0274866310160427,0.6775848603184139,0.20502673796791446,0.6775848603184139,0.865668449197861
305,0.6798137578852508,0.979572192513369,0.6798137578852508,1.27572192513369,0.6798137578852508,1.3668449197860963,0.6798137578852508,2.0274866310160427,0.6798137578852508,0.22780748663101605,0.6798137578852508,0.9112299465240642
306,0.6820426554520876,1.0023529411764707,0.6820426554520876,1.321283422459893,0.6820426554520876,1.4124064171122994,0.6820426554520876,2.0047058823529413,0.6820426554520876,0.27336898395721926,0.6820426554520876,0.9340106951871658
