,x_val,y_val,x_val,y_val,x_val,y_val,x_val,y_val,x_val,y_val,x_val,y_val
0,0.0,0.024191866527632947,0.0,0.03628779979144942,0.0,0.15724713242961416,0.0,0.8104275286757038,0.0,0.08467153284671532,0.0,0.42335766423357657
1,0.002159879336349925,0.024191866527632947,0.002159879336349925,0.03628779979144942,0.002159879336349925,0.15724713242961416,0.002159879336349925,0.7983315954118873,0.002159879336349925,0.12095933263816475,0.002159879336349925,0.3991657977059436
2,0.00431975867269985,0.024191866527632947,0.00431975867269985,0.03628779979144942,0.00431975867269985,0.15724713242961416,0.00431975867269985,0.7983315954118873,0.00431975867269985,0.16934306569343063,0.00431975867269985,0.38706986444212715
3,0.006479638009049774,0.024191866527632947,0.006479638009049774,0.03628779979144942,0.006479638009049774,0.15724713242961416,0.006479638009049774,0.7862356621480708,0.006479638009049774,0.16934306569343063,0.006479638009049774,0.38706986444212715
4,0.0086395173453997,0.024191866527632947,0.0086395173453997,0.03628779979144942,0.0086395173453997,0.16934306569343063,0.0086395173453997,0.7862356621480708,0.0086395173453997,0.1814389989572471,0.0086395173453997,0.38706986444212715
5,0.010799396681749623,0.024191866527632947,0.010799396681749623,0.03628779979144942,0.010799396681749623,0.16934306569343063,0.010799396681749623,0.7741397288842543,0.010799396681749623,0.1814389989572471,0.010799396681749623,0.3991657977059436
6,0.012959276018099548,0.024191866527632947,0.012959276018099548,0.03628779979144942,0.012959276018099548,0.16934306569343063,0.012959276018099548,0.7620437956204379,0.012959276018099548,0.1814389989572471,0.012959276018099548,0.3991657977059436
7,0.015119155354449474,0.024191866527632947,0.015119155354449474,0.03628779979144942,0.015119155354449474,0.1814389989572471,0.015119155354449474,0.7499478623566214,0.015119155354449474,0.1814389989572471,0.015119155354449474,0.3991657977059436
8,0.0172790346907994,0.024191866527632947,0.0172790346907994,0.03628779979144942,0.0172790346907994,0.1814389989572471,0.0172790346907994,0.737851929092805,0.0172790346907994,0.1814389989572471,0.0172790346907994,0.3991657977059436
9,0.019438914027149323,0.012095933263816474,0.019438914027149323,0.03628779979144942,0.019438914027149323,0.1814389989572471,0.019438914027149323,0.7257559958289884,0.019438914027149323,0.1814389989572471,0.019438914027149323,0.3991657977059436
10,0.021598793363499246,0.012095933263816474,0.021598793363499246,0.03628779979144942,0.021598793363499246,0.1814389989572471,0.021598793363499246,0.7257559958289884,0.021598793363499246,0.1814389989572471,0.021598793363499246,0.3991657977059436
11,0.023758672699849173,0.012095933263816474,0.023758672699849173,0.03628779979144942,0.023758672699849173,0.1814389989572471,0.023758672699849173,0.7257559958289884,0.023758672699849173,0.1814389989572471,0.023758672699849173,0.4112617309697601
12,0.025918552036199097,0.024191866527632947,0.025918552036199097,0.03628779979144942,0.025918552036199097,0.1814389989572471,0.025918552036199097,0.7257559958289884,0.025918552036199097,0.1814389989572471,0.025918552036199097,0.4112617309697601
13,0.02807843137254902,0.03628779979144942,0.02807843137254902,0.03628779979144942,0.02807843137254902,0.1814389989572471,0.02807843137254902,0.713660062565172,0.02807843137254902,0.1814389989572471,0.02807843137254902,0.4112617309697601
14,0.030238310708898947,0.048383733055265894,0.030238310708898947,0.03628779979144942,0.030238310708898947,0.1814389989572471,0.030238310708898947,0.713660062565172,0.030238310708898947,0.1814389989572471,0.030238310708898947,0.4112617309697601
15,0.032398190045248874,0.048383733055265894,0.032398190045248874,0.048383733055265894,0.032398190045248874,0.1814389989572471,0.032398190045248874,0.713660062565172,0.032398190045248874,0.1814389989572471,0.032398190045248874,0.4112617309697601
16,0.0345580693815988,0.06047966631908237,0.0345580693815988,0.048383733055265894,0.0345580693815988,0.1814389989572471,0.0345580693815988,0.7257559958289884,0.0345580693815988,0.1814389989572471,0.0345580693815988,0.4112617309697601
17,0.03671794871794872,0.07257559958289884,0.03671794871794872,0.048383733055265894,0.03671794871794872,0.1814389989572471,0.03671794871794872,0.7257559958289884,0.03671794871794872,0.1814389989572471,0.03671794871794872,0.4112617309697601
18,0.038877828054298645,0.08467153284671532,0.038877828054298645,0.06047966631908237,0.038877828054298645,0.1814389989572471,0.038877828054298645,0.7257559958289884,0.038877828054298645,0.1814389989572471,0.038877828054298645,0.4112617309697601
19,0.04103770739064857,0.08467153284671532,0.04103770739064857,0.06047966631908237,0.04103770739064857,0.1814389989572471,0.04103770739064857,0.7257559958289884,0.04103770739064857,0.1814389989572471,0.04103770739064857,0.4112617309697601
20,0.04319758672699849,0.09676746611053179,0.04319758672699849,0.07257559958289884,0.04319758672699849,0.1814389989572471,0.04319758672699849,0.7257559958289884,0.04319758672699849,0.1814389989572471,0.04319758672699849,0.4112617309697601
21,0.04535746606334842,0.12095933263816475,0.04535746606334842,0.08467153284671532,0.04535746606334842,0.1814389989572471,0.04535746606334842,0.7257559958289884,0.04535746606334842,0.1814389989572471,0.04535746606334842,0.4112617309697601
22,0.047517345399698346,0.3628779979144942,0.047517345399698346,0.09676746611053179,0.047517345399698346,0.1814389989572471,0.047517345399698346,0.7257559958289884,0.047517345399698346,0.1814389989572471,0.047517345399698346,0.4112617309697601
23,0.04967722473604827,1.0523461939520333,0.04967722473604827,0.10886339937434826,0.04967722473604827,0.1814389989572471,0.04967722473604827,0.737851929092805,0.04967722473604827,0.19353493222106358,0.04967722473604827,0.4112617309697601
24,0.051837104072398194,1.3789363920750781,0.051837104072398194,0.13305526590198122,0.051837104072398194,0.1814389989572471,0.051837104072398194,0.737851929092805,0.051837104072398194,0.19353493222106358,0.051837104072398194,0.4112617309697601
25,0.05399698340874812,1.3789363920750781,0.05399698340874812,0.30239833159541185,0.05399698340874812,0.1814389989572471,0.05399698340874812,0.737851929092805,0.05399698340874812,0.19353493222106358,0.05399698340874812,0.4112617309697601
26,0.05615686274509804,1.3789363920750781,0.05615686274509804,1.354744525547445,0.05615686274509804,0.19353493222106358,0.05615686274509804,0.7499478623566214,0.05615686274509804,0.19353493222106358,0.05615686274509804,0.4112617309697601
27,0.05831674208144797,1.3789363920750781,0.05831674208144797,1.3668404588112615,0.05831674208144797,0.229822732012513,0.05831674208144797,0.7620437956204379,0.05831674208144797,0.19353493222106358,0.05831674208144797,0.4112617309697601
28,0.060476621417797895,1.3789363920750781,0.060476621417797895,1.3668404588112615,0.060476621417797895,0.5806047966631908,0.060476621417797895,0.7741397288842543,0.060476621417797895,0.19353493222106358,0.060476621417797895,0.4112617309697601
29,0.06263650075414781,1.3789363920750781,0.06263650075414781,1.3668404588112615,0.06263650075414781,0.9918665276329509,0.06263650075414781,0.7983315954118873,0.06263650075414781,0.20563086548488005,0.06263650075414781,0.4112617309697601
30,0.06479638009049775,1.3789363920750781,0.06479638009049775,1.3668404588112615,0.06479638009049775,1.1612095933263815,0.06479638009049775,0.8346193952033367,0.06479638009049775,0.20563086548488005,0.06479638009049775,0.4112617309697601
31,0.06695625942684767,1.3789363920750781,0.06695625942684767,1.3668404588112615,0.06695625942684767,1.1612095933263815,0.06695625942684767,0.8830031282586026,0.06695625942684767,0.20563086548488005,0.06695625942684767,0.4112617309697601
32,0.0691161387631976,1.3789363920750781,0.0691161387631976,1.3668404588112615,0.0691161387631976,1.1612095933263815,0.0691161387631976,2.044212721584984,0.0691161387631976,0.21772679874869652,0.0691161387631976,0.4112617309697601
33,0.07127601809954752,1.3789363920750781,0.07127601809954752,1.3668404588112615,0.07127601809954752,1.1612095933263815,0.07127601809954752,2.0563086548488005,0.07127601809954752,0.229822732012513,0.07127601809954752,0.4112617309697601
34,0.07343589743589744,1.3789363920750781,0.07343589743589744,1.3668404588112615,0.07343589743589744,1.1612095933263815,0.07343589743589744,2.068404588112617,0.07343589743589744,0.3265901981230448,0.07343589743589744,0.4112617309697601
35,0.07559577677224737,1.3789363920750781,0.07559577677224737,1.3668404588112615,0.07559577677224737,1.1612095933263815,0.07559577677224737,2.068404588112617,0.07559577677224737,1.584567257559958,0.07559577677224737,0.42335766423357657
36,0.07775565610859729,1.3789363920750781,0.07775565610859729,1.3668404588112615,0.07775565610859729,1.1612095933263815,0.07775565610859729,2.068404588112617,0.07775565610859729,1.5966631908237745,0.07775565610859729,0.4475495307612095
37,0.07991553544494721,1.3789363920750781,0.07991553544494721,1.3668404588112615,0.07991553544494721,1.1612095933263815,0.07991553544494721,2.068404588112617,0.07991553544494721,1.5966631908237745,0.07991553544494721,0.5927007299270072
38,0.08207541478129714,1.3789363920750781,0.08207541478129714,1.3668404588112615,0.08207541478129714,1.1612095933263815,0.08207541478129714,2.068404588112617,0.08207541478129714,1.5966631908237745,0.08207541478129714,1.5119916579770591
39,0.08423529411764706,1.3789363920750781,0.08423529411764706,1.3668404588112615,0.08423529411764706,1.1612095933263815,0.08423529411764706,2.068404588112617,0.08423529411764706,1.5966631908237745,0.08423529411764706,1.7660062565172052
40,0.08639517345399698,1.3789363920750781,0.08639517345399698,1.3668404588112615,0.08639517345399698,1.1612095933263815,0.08639517345399698,2.068404588112617,0.08639517345399698,1.5966631908237745,0.08639517345399698,1.7660062565172052
41,0.08855505279034691,1.3789363920750781,0.08855505279034691,1.3668404588112615,0.08855505279034691,1.1612095933263815,0.08855505279034691,2.068404588112617,0.08855505279034691,1.5966631908237745,0.08855505279034691,1.7660062565172052
42,0.09071493212669685,1.3668404588112615,0.09071493212669685,1.3668404588112615,0.09071493212669685,1.1612095933263815,0.09071493212669685,2.068404588112617,0.09071493212669685,1.5966631908237745,0.09071493212669685,1.7660062565172052
43,0.09287481146304677,1.354744525547445,0.09287481146304677,1.3668404588112615,0.09287481146304677,1.1612095933263815,0.09287481146304677,2.068404588112617,0.09287481146304677,1.5966631908237745,0.09287481146304677,1.7660062565172052
44,0.09503469079939669,1.354744525547445,0.09503469079939669,1.3668404588112615,0.09503469079939669,1.1612095933263815,0.09503469079939669,2.068404588112617,0.09503469079939669,1.5966631908237745,0.09503469079939669,1.7660062565172052
45,0.09719457013574662,1.354744525547445,0.09719457013574662,1.3668404588112615,0.09719457013574662,1.1612095933263815,0.09719457013574662,2.068404588112617,0.09719457013574662,1.5966631908237745,0.09719457013574662,1.7660062565172052
46,0.09935444947209654,1.354744525547445,0.09935444947209654,1.3668404588112615,0.09935444947209654,1.1612095933263815,0.09935444947209654,2.068404588112617,0.09935444947209654,1.5966631908237745,0.09935444947209654,1.7660062565172052
47,0.10151432880844646,1.3668404588112615,0.10151432880844646,1.3789363920750781,0.10151432880844646,1.1612095933263815,0.10151432880844646,2.068404588112617,0.10151432880844646,1.5966631908237745,0.10151432880844646,1.7660062565172052
48,0.10367420814479639,1.3668404588112615,0.10367420814479639,1.3910323253388945,0.10367420814479639,1.1612095933263815,0.10367420814479639,2.068404588112617,0.10367420814479639,1.5966631908237745,0.10367420814479639,1.7660062565172052
49,0.10583408748114631,1.3668404588112615,0.10583408748114631,1.3910323253388945,0.10583408748114631,1.173305526590198,0.10583408748114631,2.068404588112617,0.10583408748114631,1.5966631908237745,0.10583408748114631,1.7660062565172052
50,0.10799396681749623,1.3668404588112615,0.10799396681749623,1.403128258602711,0.10799396681749623,1.2095933263816474,0.10799396681749623,2.068404588112617,0.10799396681749623,1.5966631908237745,0.10799396681749623,1.7660062565172052
51,0.11015384615384616,1.3789363920750781,0.11015384615384616,1.403128258602711,0.11015384615384616,1.5361835245046922,0.11015384615384616,2.068404588112617,0.11015384615384616,1.5966631908237745,0.11015384615384616,1.7660062565172052
52,0.11231372549019608,1.3789363920750781,0.11231372549019608,1.403128258602711,0.11231372549019608,1.5361835245046922,0.11231372549019608,2.068404588112617,0.11231372549019608,1.5966631908237745,0.11231372549019608,1.7660062565172052
53,0.114473604826546,1.3789363920750781,0.114473604826546,1.403128258602711,0.114473604826546,1.5361835245046922,0.114473604826546,2.068404588112617,0.114473604826546,1.5966631908237745,0.114473604826546,1.7660062565172052
54,0.11663348416289594,1.3789363920750781,0.11663348416289594,1.4152241918665274,0.11663348416289594,1.5361835245046922,0.11663348416289594,2.068404588112617,0.11663348416289594,1.5966631908237745,0.11663348416289594,1.7660062565172052
55,0.11879336349924587,1.3910323253388945,0.11879336349924587,1.4152241918665274,0.11879336349924587,1.5482794577685086,0.11879336349924587,2.068404588112617,0.11879336349924587,1.584567257559958,0.11879336349924587,1.7660062565172052
56,0.12095324283559579,1.3910323253388945,0.12095324283559579,1.4152241918665274,0.12095324283559579,1.5482794577685086,0.12095324283559579,2.068404588112617,0.12095324283559579,1.584567257559958,0.12095324283559579,1.7660062565172052
57,0.12311312217194571,1.3910323253388945,0.12311312217194571,1.4152241918665274,0.12311312217194571,1.5482794577685086,0.12311312217194571,2.068404588112617,0.12311312217194571,1.584567257559958,0.12311312217194571,1.7660062565172052
58,0.12527300150829562,1.3910323253388945,0.12527300150829562,1.4152241918665274,0.12527300150829562,1.5482794577685086,0.12527300150829562,2.068404588112617,0.12527300150829562,1.584567257559958,0.12527300150829562,1.7781021897810216
59,0.12743288084464555,1.3910323253388945,0.12743288084464555,1.4152241918665274,0.12743288084464555,1.5482794577685086,0.12743288084464555,2.068404588112617,0.12743288084464555,1.584567257559958,0.12743288084464555,1.7781021897810216
60,0.1295927601809955,1.3910323253388945,0.1295927601809955,1.4152241918665274,0.1295927601809955,1.5482794577685086,0.1295927601809955,2.068404588112617,0.1295927601809955,1.584567257559958,0.1295927601809955,1.7781021897810216
61,0.13175263951734542,1.3910323253388945,0.13175263951734542,1.4152241918665274,0.13175263951734542,1.5482794577685086,0.13175263951734542,2.0805005213764334,0.13175263951734542,1.584567257559958,0.13175263951734542,1.7781021897810216
62,0.13391251885369534,1.3910323253388945,0.13391251885369534,1.4152241918665274,0.13391251885369534,1.5482794577685086,0.13391251885369534,2.0805005213764334,0.13391251885369534,1.584567257559958,0.13391251885369534,1.7781021897810216
63,0.13607239819004527,1.3910323253388945,0.13607239819004527,1.4152241918665274,0.13607239819004527,1.5482794577685086,0.13607239819004527,2.0805005213764334,0.13607239819004527,1.584567257559958,0.13607239819004527,1.790198123044838
64,0.1382322775263952,1.3910323253388945,0.1382322775263952,1.4152241918665274,0.1382322775263952,1.5482794577685086,0.1382322775263952,2.0805005213764334,0.1382322775263952,1.584567257559958,0.1382322775263952,1.790198123044838
65,0.14039215686274512,1.3910323253388945,0.14039215686274512,1.4152241918665274,0.14039215686274512,1.5482794577685086,0.14039215686274512,2.0805005213764334,0.14039215686274512,1.584567257559958,0.14039215686274512,1.790198123044838
66,0.14255203619909504,1.3910323253388945,0.14255203619909504,1.4152241918665274,0.14255203619909504,1.5482794577685086,0.14255203619909504,2.0805005213764334,0.14255203619909504,1.584567257559958,0.14255203619909504,1.790198123044838
67,0.14471191553544496,1.3910323253388945,0.14471191553544496,1.4152241918665274,0.14471191553544496,1.5482794577685086,0.14471191553544496,2.0805005213764334,0.14471191553544496,1.584567257559958,0.14471191553544496,1.790198123044838
68,0.1468717948717949,1.3910323253388945,0.1468717948717949,1.4152241918665274,0.1468717948717949,1.5482794577685086,0.1468717948717949,2.0805005213764334,0.1468717948717949,1.584567257559958,0.1468717948717949,1.790198123044838
69,0.1490316742081448,1.3910323253388945,0.1490316742081448,1.4152241918665274,0.1490316742081448,1.5482794577685086,0.1490316742081448,2.0805005213764334,0.1490316742081448,1.584567257559958,0.1490316742081448,1.790198123044838
70,0.15119155354449473,1.3910323253388945,0.15119155354449473,1.4152241918665274,0.15119155354449473,1.5482794577685086,0.15119155354449473,2.0805005213764334,0.15119155354449473,1.584567257559958,0.15119155354449473,1.790198123044838
71,0.15335143288084466,1.3910323253388945,0.15335143288084466,1.4152241918665274,0.15335143288084466,1.5482794577685086,0.15335143288084466,2.0805005213764334,0.15335143288084466,1.584567257559958,0.15335143288084466,1.790198123044838
72,0.15551131221719458,1.3910323253388945,0.15551131221719458,1.4152241918665274,0.15551131221719458,1.5482794577685086,0.15551131221719458,2.0805005213764334,0.15551131221719458,1.584567257559958,0.15551131221719458,1.790198123044838
73,0.1576711915535445,1.3910323253388945,0.1576711915535445,1.4152241918665274,0.1576711915535445,1.5482794577685086,0.1576711915535445,2.0805005213764334,0.1576711915535445,1.584567257559958,0.1576711915535445,1.790198123044838
74,0.15983107088989443,1.3910323253388945,0.15983107088989443,1.4152241918665274,0.15983107088989443,1.5482794577685086,0.15983107088989443,2.0805005213764334,0.15983107088989443,1.584567257559958,0.15983107088989443,1.790198123044838
75,0.16199095022624435,1.3910323253388945,0.16199095022624435,1.4152241918665274,0.16199095022624435,1.5482794577685086,0.16199095022624435,2.0805005213764334,0.16199095022624435,1.584567257559958,0.16199095022624435,1.790198123044838
76,0.16415082956259427,1.3910323253388945,0.16415082956259427,1.4152241918665274,0.16415082956259427,1.5482794577685086,0.16415082956259427,2.0805005213764334,0.16415082956259427,1.584567257559958,0.16415082956259427,1.790198123044838
77,0.1663107088989442,1.3910323253388945,0.1663107088989442,1.4152241918665274,0.1663107088989442,1.5482794577685086,0.1663107088989442,2.0805005213764334,0.1663107088989442,1.584567257559958,0.1663107088989442,1.790198123044838
78,0.16847058823529412,1.3910323253388945,0.16847058823529412,1.4152241918665274,0.16847058823529412,1.5482794577685086,0.16847058823529412,2.0805005213764334,0.16847058823529412,1.584567257559958,0.16847058823529412,1.790198123044838
79,0.17063046757164405,1.3910323253388945,0.17063046757164405,1.4152241918665274,0.17063046757164405,1.5482794577685086,0.17063046757164405,2.0805005213764334,0.17063046757164405,1.584567257559958,0.17063046757164405,1.790198123044838
80,0.17279034690799397,1.3910323253388945,0.17279034690799397,1.4152241918665274,0.17279034690799397,1.5482794577685086,0.17279034690799397,2.0805005213764334,0.17279034690799397,1.584567257559958,0.17279034690799397,1.790198123044838
81,0.1749502262443439,1.3910323253388945,0.1749502262443439,1.4152241918665274,0.1749502262443439,1.5482794577685086,0.1749502262443439,2.0805005213764334,0.1749502262443439,1.584567257559958,0.1749502262443439,1.790198123044838
82,0.17711010558069382,1.3910323253388945,0.17711010558069382,1.4152241918665274,0.17711010558069382,1.5482794577685086,0.17711010558069382,2.0805005213764334,0.17711010558069382,1.584567257559958,0.17711010558069382,1.790198123044838
83,0.17926998491704374,1.3910323253388945,0.17926998491704374,1.4152241918665274,0.17926998491704374,1.5482794577685086,0.17926998491704374,2.0805005213764334,0.17926998491704374,1.584567257559958,0.17926998491704374,1.790198123044838
84,0.1814298642533937,1.3910323253388945,0.1814298642533937,1.4152241918665274,0.1814298642533937,1.5482794577685086,0.1814298642533937,2.0805005213764334,0.1814298642533937,1.584567257559958,0.1814298642533937,1.790198123044838
85,0.18358974358974361,1.3910323253388945,0.18358974358974361,1.4152241918665274,0.18358974358974361,1.5482794577685086,0.18358974358974361,2.09259645464025,0.18358974358974361,1.584567257559958,0.18358974358974361,1.790198123044838
86,0.18574962292609354,1.3910323253388945,0.18574962292609354,1.4152241918665274,0.18574962292609354,1.5482794577685086,0.18574962292609354,2.09259645464025,0.18574962292609354,1.584567257559958,0.18574962292609354,1.790198123044838
87,0.18790950226244346,1.3910323253388945,0.18790950226244346,1.4152241918665274,0.18790950226244346,1.5482794577685086,0.18790950226244346,2.09259645464025,0.18790950226244346,1.584567257559958,0.18790950226244346,1.790198123044838
88,0.19006938159879339,1.3910323253388945,0.19006938159879339,1.4152241918665274,0.19006938159879339,1.5482794577685086,0.19006938159879339,2.09259645464025,0.19006938159879339,1.584567257559958,0.19006938159879339,1.790198123044838
89,0.1922292609351433,1.3789363920750781,0.1922292609351433,1.4152241918665274,0.1922292609351433,1.5482794577685086,0.1922292609351433,2.09259645464025,0.1922292609351433,1.584567257559958,0.1922292609351433,1.790198123044838
90,0.19438914027149323,1.3789363920750781,0.19438914027149323,1.4152241918665274,0.19438914027149323,1.5482794577685086,0.19438914027149323,2.09259645464025,0.19438914027149323,1.584567257559958,0.19438914027149323,1.790198123044838
91,0.19654901960784316,1.3789363920750781,0.19654901960784316,1.4152241918665274,0.19654901960784316,1.5482794577685086,0.19654901960784316,2.09259645464025,0.19654901960784316,1.584567257559958,0.19654901960784316,1.790198123044838
92,0.19870889894419308,1.3789363920750781,0.19870889894419308,1.4152241918665274,0.19870889894419308,1.5482794577685086,0.19870889894419308,2.09259645464025,0.19870889894419308,1.584567257559958,0.19870889894419308,1.790198123044838
93,0.200868778280543,1.3789363920750781,0.200868778280543,1.4152241918665274,0.200868778280543,1.5482794577685086,0.200868778280543,2.09259645464025,0.200868778280543,1.584567257559958,0.200868778280543,1.790198123044838
94,0.20302865761689293,1.3668404588112615,0.20302865761689293,1.403128258602711,0.20302865761689293,1.5482794577685086,0.20302865761689293,2.09259645464025,0.20302865761689293,1.584567257559958,0.20302865761689293,1.790198123044838
95,0.20518853695324285,1.3668404588112615,0.20518853695324285,1.403128258602711,0.20518853695324285,1.5482794577685086,0.20518853695324285,2.09259645464025,0.20518853695324285,1.584567257559958,0.20518853695324285,1.790198123044838
96,0.20734841628959277,1.3668404588112615,0.20734841628959277,1.403128258602711,0.20734841628959277,1.5482794577685086,0.20734841628959277,2.09259645464025,0.20734841628959277,1.584567257559958,0.20734841628959277,1.790198123044838
97,0.2095082956259427,1.3668404588112615,0.2095082956259427,1.403128258602711,0.2095082956259427,1.5482794577685086,0.2095082956259427,2.09259645464025,0.2095082956259427,1.584567257559958,0.2095082956259427,1.790198123044838
98,0.21166817496229262,1.3668404588112615,0.21166817496229262,1.403128258602711,0.21166817496229262,1.5482794577685086,0.21166817496229262,2.09259645464025,0.21166817496229262,1.584567257559958,0.21166817496229262,1.790198123044838
99,0.21382805429864254,1.354744525547445,0.21382805429864254,1.403128258602711,0.21382805429864254,1.5482794577685086,0.21382805429864254,2.09259645464025,0.21382805429864254,1.584567257559958,0.21382805429864254,1.790198123044838
100,0.21598793363499247,1.354744525547445,0.21598793363499247,1.3910323253388945,0.21598793363499247,1.5482794577685086,0.21598793363499247,2.09259645464025,0.21598793363499247,1.584567257559958,0.21598793363499247,1.790198123044838
101,0.2181478129713424,1.3668404588112615,0.2181478129713424,1.3789363920750781,0.2181478129713424,1.5482794577685086,0.2181478129713424,2.09259645464025,0.2181478129713424,1.584567257559958,0.2181478129713424,1.790198123044838
102,0.22030769230769232,1.3668404588112615,0.22030769230769232,1.3789363920750781,0.22030769230769232,1.5482794577685086,0.22030769230769232,2.09259645464025,0.22030769230769232,1.584567257559958,0.22030769230769232,1.790198123044838
103,0.22246757164404224,1.3789363920750781,0.22246757164404224,1.3668404588112615,0.22246757164404224,1.5361835245046922,0.22246757164404224,2.09259645464025,0.22246757164404224,1.584567257559958,0.22246757164404224,1.790198123044838
104,0.22462745098039216,1.3789363920750781,0.22462745098039216,1.3789363920750781,0.22462745098039216,1.5361835245046922,0.22462745098039216,2.09259645464025,0.22462745098039216,1.584567257559958,0.22462745098039216,1.790198123044838
105,0.2267873303167421,1.3789363920750781,0.2267873303167421,1.3910323253388945,0.2267873303167421,1.2458811261730969,0.2267873303167421,2.09259645464025,0.2267873303167421,1.584567257559958,0.2267873303167421,1.790198123044838
106,0.228947209653092,1.3789363920750781,0.228947209653092,1.3910323253388945,0.228947209653092,1.2337851929092802,0.228947209653092,2.09259645464025,0.228947209653092,1.584567257559958,0.228947209653092,1.790198123044838
107,0.23110708898944193,1.3789363920750781,0.23110708898944193,1.3910323253388945,0.23110708898944193,1.2216892596454638,0.23110708898944193,2.09259645464025,0.23110708898944193,1.584567257559958,0.23110708898944193,1.790198123044838
108,0.23326696832579188,1.3789363920750781,0.23326696832579188,1.3910323253388945,0.23326696832579188,1.2216892596454638,0.23326696832579188,2.0805005213764334,0.23326696832579188,1.584567257559958,0.23326696832579188,1.790198123044838
109,0.2354268476621418,1.3789363920750781,0.2354268476621418,1.3910323253388945,0.2354268476621418,1.2216892596454638,0.2354268476621418,2.068404588112617,0.2354268476621418,1.5724713242961417,0.2354268476621418,1.790198123044838
110,0.23758672699849173,1.3789363920750781,0.23758672699849173,1.3910323253388945,0.23758672699849173,1.2216892596454638,0.23758672699849173,2.068404588112617,0.23758672699849173,0.5927007299270072,0.23758672699849173,1.790198123044838
111,0.23974660633484166,1.3789363920750781,0.23974660633484166,1.3910323253388945,0.23974660633484166,1.2216892596454638,0.23974660633484166,2.068404588112617,0.23974660633484166,0.5443169968717413,0.23974660633484166,1.790198123044838
112,0.24190648567119158,1.3789363920750781,0.24190648567119158,1.3910323253388945,0.24190648567119158,1.2216892596454638,0.24190648567119158,2.068404588112617,0.24190648567119158,0.5201251303441083,0.24190648567119158,1.790198123044838
113,0.2440663650075415,1.3789363920750781,0.2440663650075415,1.3910323253388945,0.2440663650075415,1.2216892596454638,0.2440663650075415,2.068404588112617,0.2440663650075415,0.5443169968717413,0.2440663650075415,1.7781021897810216
114,0.24622624434389143,1.3789363920750781,0.24622624434389143,1.3910323253388945,0.24622624434389143,1.2216892596454638,0.24622624434389143,2.068404588112617,0.24622624434389143,0.5806047966631908,0.24622624434389143,1.7781021897810216
115,0.24838612368024135,1.3789363920750781,0.24838612368024135,1.3910323253388945,0.24838612368024135,1.2216892596454638,0.24838612368024135,2.068404588112617,0.24838612368024135,0.5927007299270072,0.24838612368024135,1.7781021897810216
116,0.25054600301659125,1.3789363920750781,0.25054600301659125,1.3910323253388945,0.25054600301659125,1.2216892596454638,0.25054600301659125,2.068404588112617,0.25054600301659125,0.5927007299270072,0.25054600301659125,1.7781021897810216
117,0.25270588235294117,1.3789363920750781,0.25270588235294117,1.3910323253388945,0.25270588235294117,1.2216892596454638,0.25270588235294117,2.068404588112617,0.25270588235294117,0.5927007299270072,0.25270588235294117,1.7781021897810216
118,0.2548657616892911,1.3789363920750781,0.2548657616892911,1.3910323253388945,0.2548657616892911,1.2216892596454638,0.2548657616892911,2.068404588112617,0.2548657616892911,0.5927007299270072,0.2548657616892911,1.7781021897810216
119,0.257025641025641,1.3789363920750781,0.257025641025641,1.3910323253388945,0.257025641025641,1.2216892596454638,0.257025641025641,2.068404588112617,0.257025641025641,0.5927007299270072,0.257025641025641,1.7781021897810216
120,0.259185520361991,1.3789363920750781,0.259185520361991,1.3910323253388945,0.259185520361991,1.2216892596454638,0.259185520361991,2.068404588112617,0.259185520361991,0.5927007299270072,0.259185520361991,1.7781021897810216
121,0.2613453996983409,1.3789363920750781,0.2613453996983409,1.3910323253388945,0.2613453996983409,1.2216892596454638,0.2613453996983409,2.068404588112617,0.2613453996983409,0.5927007299270072,0.2613453996983409,1.7781021897810216
122,0.26350527903469084,1.3789363920750781,0.26350527903469084,1.3910323253388945,0.26350527903469084,1.2216892596454638,0.26350527903469084,2.068404588112617,0.26350527903469084,0.5927007299270072,0.26350527903469084,1.7781021897810216
123,0.26566515837104077,0.9797705943691344,0.26566515837104077,1.3910323253388945,0.26566515837104077,1.2216892596454638,0.26566515837104077,2.068404588112617,0.26566515837104077,0.5927007299270072,0.26566515837104077,1.7781021897810216
124,0.2678250377073907,0.3144942648592283,0.2678250377073907,1.3910323253388945,0.2678250377073907,1.2216892596454638,0.2678250377073907,2.068404588112617,0.2678250377073907,0.5927007299270072,0.2678250377073907,1.7781021897810216
125,0.2699849170437406,0.25401459854014596,0.2699849170437406,1.0886339937434826,0.2699849170437406,1.2216892596454638,0.2699849170437406,2.068404588112617,0.2699849170437406,0.5927007299270072,0.2699849170437406,1.7781021897810216
126,0.27214479638009054,0.20563086548488005,0.27214479638009054,0.4112617309697601,0.27214479638009054,1.2216892596454638,0.27214479638009054,2.068404588112617,0.27214479638009054,0.5927007299270072,0.27214479638009054,1.7781021897810216
127,0.27430467571644046,0.16934306569343063,0.27430467571644046,0.16934306569343063,0.27430467571644046,1.197497393117831,0.27430467571644046,2.068404588112617,0.27430467571644046,0.5927007299270072,0.27430467571644046,1.7781021897810216
128,0.2764645550527904,0.1451511991657977,0.2764645550527904,0.15724713242961416,0.2764645550527904,1.1612095933263815,0.2764645550527904,2.068404588112617,0.2764645550527904,0.5927007299270072,0.2764645550527904,1.7781021897810216
129,0.2786244343891403,0.13305526590198122,0.2786244343891403,0.1451511991657977,0.2786244343891403,0.30239833159541185,0.2786244343891403,2.068404588112617,0.2786244343891403,0.5927007299270072,0.2786244343891403,1.7781021897810216
130,0.28078431372549023,0.12095933263816475,0.28078431372549023,0.1451511991657977,0.28078431372549023,0.2903023983315954,0.28078431372549023,1.7781021897810216,0.28078431372549023,0.5927007299270072,0.28078431372549023,1.7781021897810216
131,0.28294419306184015,0.10886339937434826,0.28294419306184015,0.13305526590198122,0.28294419306184015,0.2782064650677789,0.28294419306184015,1.7176225234619393,0.28294419306184015,0.5927007299270072,0.28294419306184015,1.7781021897810216
132,0.2851040723981901,0.09676746611053179,0.2851040723981901,0.13305526590198122,0.2851040723981901,0.2782064650677789,0.2851040723981901,1.560375391032325,0.2851040723981901,0.5927007299270072,0.2851040723981901,1.7781021897810216
133,0.28726395173454,0.08467153284671532,0.28726395173454,0.12095933263816475,0.28726395173454,0.26611053180396244,0.28726395173454,1.4998957247132427,0.28726395173454,0.5927007299270072,0.28726395173454,1.7781021897810216
134,0.2894238310708899,0.07257559958289884,0.2894238310708899,0.10886339937434826,0.2894238310708899,0.26611053180396244,0.2894238310708899,0.8709071949947861,0.2894238310708899,0.5806047966631908,0.2894238310708899,1.7781021897810216
135,0.29158371040723985,0.06047966631908237,0.29158371040723985,0.09676746611053179,0.29158371040723985,0.26611053180396244,0.29158371040723985,0.8467153284671531,0.29158371040723985,0.3749739311783107,0.29158371040723985,1.5119916579770591
136,0.2937435897435898,0.048383733055265894,0.2937435897435898,0.08467153284671532,0.2937435897435898,0.25401459854014596,0.2937435897435898,0.8346193952033367,0.2937435897435898,0.3628779979144942,0.2937435897435898,1.1370177267987485
137,0.2959034690799397,0.048383733055265894,0.2959034690799397,0.07257559958289884,0.2959034690799397,0.2419186652763295,0.2959034690799397,0.8225234619395202,0.2959034690799397,0.35078206465067774,0.2959034690799397,0.8346193952033367
138,0.2980633484162896,0.03628779979144942,0.2980633484162896,0.06047966631908237,0.2980633484162896,0.2419186652763295,0.2980633484162896,0.8104275286757038,0.2980633484162896,0.33868613138686127,0.2980633484162896,0.5806047966631908
139,0.30022322775263954,0.03628779979144942,0.30022322775263954,0.048383733055265894,0.30022322775263954,0.229822732012513,0.30022322775263954,0.7983315954118873,0.30022322775263954,0.3265901981230448,0.30022322775263954,0.5685088633993742
140,0.30238310708898947,0.03628779979144942,0.30238310708898947,0.03628779979144942,0.30238310708898947,0.21772679874869652,0.30238310708898947,0.7862356621480708,0.30238310708898947,0.3144942648592283,0.30238310708898947,0.5564129301355578
141,0.3045429864253394,0.03628779979144942,0.3045429864253394,0.03628779979144942,0.3045429864253394,0.21772679874869652,0.3045429864253394,0.7620437956204379,0.3045429864253394,0.30239833159541185,0.3045429864253394,0.5443169968717413
142,0.3067028657616893,0.03628779979144942,0.3067028657616893,0.03628779979144942,0.3067028657616893,0.20563086548488005,0.3067028657616893,0.7499478623566214,0.3067028657616893,0.2903023983315954,0.3067028657616893,0.5443169968717413
143,0.30886274509803924,0.048383733055265894,0.30886274509803924,0.03628779979144942,0.30886274509803924,0.20563086548488005,0.30886274509803924,0.7499478623566214,0.30886274509803924,0.2782064650677789,0.30886274509803924,0.5322210636079249
144,0.31102262443438916,0.048383733055265894,0.31102262443438916,0.03628779979144942,0.31102262443438916,0.20563086548488005,0.31102262443438916,0.737851929092805,0.31102262443438916,0.26611053180396244,0.31102262443438916,0.5201251303441083
145,0.3131825037707391,0.048383733055265894,0.3131825037707391,0.03628779979144942,0.3131825037707391,0.20563086548488005,0.3131825037707391,0.737851929092805,0.3131825037707391,0.25401459854014596,0.3131825037707391,0.5080291970802919
146,0.315342383107089,0.048383733055265894,0.315342383107089,0.03628779979144942,0.315342383107089,0.20563086548488005,0.315342383107089,0.737851929092805,0.315342383107089,0.2419186652763295,0.315342383107089,0.49593326381647546
147,0.31750226244343893,0.048383733055265894,0.31750226244343893,0.03628779979144942,0.31750226244343893,0.19353493222106358,0.31750226244343893,0.737851929092805,0.31750226244343893,0.229822732012513,0.31750226244343893,0.47174139728884246
148,0.31966214177978886,0.048383733055265894,0.31966214177978886,0.03628779979144942,0.31966214177978886,0.19353493222106358,0.31966214177978886,0.7257559958289884,0.31966214177978886,0.229822732012513,0.31966214177978886,0.459645464025026
149,0.3218220211161388,0.048383733055265894,0.3218220211161388,0.03628779979144942,0.3218220211161388,0.19353493222106358,0.3218220211161388,0.7257559958289884,0.3218220211161388,0.229822732012513,0.3218220211161388,0.4475495307612095
150,0.3239819004524887,0.048383733055265894,0.3239819004524887,0.03628779979144942,0.3239819004524887,0.19353493222106358,0.3239819004524887,0.7257559958289884,0.3239819004524887,0.229822732012513,0.3239819004524887,0.4475495307612095
151,0.3261417797888386,0.06047966631908237,0.3261417797888386,0.03628779979144942,0.3261417797888386,0.19353493222106358,0.3261417797888386,0.7257559958289884,0.3261417797888386,0.229822732012513,0.3261417797888386,0.43545359749739304
152,0.32830165912518855,0.06047966631908237,0.32830165912518855,0.03628779979144942,0.32830165912518855,0.19353493222106358,0.32830165912518855,0.7257559958289884,0.32830165912518855,0.229822732012513,0.32830165912518855,0.43545359749739304
153,0.3304615384615385,0.06047966631908237,0.3304615384615385,0.03628779979144942,0.3304615384615385,0.1814389989572471,0.3304615384615385,0.7257559958289884,0.3304615384615385,0.229822732012513,0.3304615384615385,0.43545359749739304
154,0.3326214177978884,0.07257559958289884,0.3326214177978884,0.03628779979144942,0.3326214177978884,0.1814389989572471,0.3326214177978884,0.713660062565172,0.3326214177978884,0.229822732012513,0.3326214177978884,0.43545359749739304
155,0.3347812971342383,0.07257559958289884,0.3347812971342383,0.03628779979144942,0.3347812971342383,0.1814389989572471,0.3347812971342383,0.713660062565172,0.3347812971342383,0.229822732012513,0.3347812971342383,0.43545359749739304
156,0.33694117647058824,0.08467153284671532,0.33694117647058824,0.024191866527632947,0.33694117647058824,0.16934306569343063,0.33694117647058824,0.7015641293013555,0.33694117647058824,0.229822732012513,0.33694117647058824,0.43545359749739304
157,0.33910105580693817,0.09676746611053179,0.33910105580693817,0.024191866527632947,0.33910105580693817,0.16934306569343063,0.33910105580693817,0.6894681960375391,0.33910105580693817,0.229822732012513,0.33910105580693817,0.43545359749739304
158,0.3412609351432881,0.09676746611053179,0.3412609351432881,0.024191866527632947,0.3412609351432881,0.16934306569343063,0.3412609351432881,0.6773722627737225,0.3412609351432881,0.21772679874869652,0.3412609351432881,0.43545359749739304
159,0.343420814479638,0.10886339937434826,0.343420814479638,0.012095933263816474,0.343420814479638,0.16934306569343063,0.343420814479638,0.6652763295099061,0.343420814479638,0.21772679874869652,0.343420814479638,0.43545359749739304
160,0.34558069381598794,0.10886339937434826,0.34558069381598794,0.03628779979144942,0.34558069381598794,0.15724713242961416,0.34558069381598794,0.6531803962460896,0.34558069381598794,0.21772679874869652,0.34558069381598794,0.43545359749739304
161,0.34774057315233786,0.10886339937434826,0.34774057315233786,0.06047966631908237,0.34774057315233786,0.15724713242961416,0.34774057315233786,0.6410844629822731,0.34774057315233786,0.21772679874869652,0.34774057315233786,0.43545359749739304
162,0.3499004524886878,0.10886339937434826,0.3499004524886878,0.10886339937434826,0.3499004524886878,0.15724713242961416,0.3499004524886878,0.6289885297184566,0.3499004524886878,0.21772679874869652,0.3499004524886878,0.43545359749739304
163,0.3520603318250377,0.10886339937434826,0.3520603318250377,0.12095933263816475,0.3520603318250377,0.15724713242961416,0.3520603318250377,0.6168925964546401,0.3520603318250377,0.21772679874869652,0.3520603318250377,0.43545359749739304
164,0.35422021116138763,0.10886339937434826,0.35422021116138763,0.13305526590198122,0.35422021116138763,0.15724713242961416,0.35422021116138763,0.6047966631908237,0.35422021116138763,0.21772679874869652,0.35422021116138763,0.43545359749739304
165,0.35638009049773756,0.10886339937434826,0.35638009049773756,0.1451511991657977,0.35638009049773756,0.15724713242961416,0.35638009049773756,0.6047966631908237,0.35638009049773756,0.21772679874869652,0.35638009049773756,0.43545359749739304
166,0.3585399698340875,0.10886339937434826,0.3585399698340875,0.1451511991657977,0.3585399698340875,0.15724713242961416,0.3585399698340875,0.6047966631908237,0.3585399698340875,0.21772679874869652,0.3585399698340875,0.43545359749739304
167,0.3606998491704374,0.10886339937434826,0.3606998491704374,0.1451511991657977,0.3606998491704374,0.15724713242961416,0.3606998491704374,0.6047966631908237,0.3606998491704374,0.21772679874869652,0.3606998491704374,0.42335766423357657
168,0.3628597285067874,0.10886339937434826,0.3628597285067874,0.1451511991657977,0.3628597285067874,0.15724713242961416,0.3628597285067874,0.6168925964546401,0.3628597285067874,0.21772679874869652,0.3628597285067874,0.42335766423357657
169,0.3650196078431373,0.10886339937434826,0.3650196078431373,0.1451511991657977,0.3650196078431373,0.15724713242961416,0.3650196078431373,0.6168925964546401,0.3650196078431373,0.229822732012513,0.3650196078431373,0.42335766423357657
170,0.36717948717948723,0.10886339937434826,0.36717948717948723,0.1451511991657977,0.36717948717948723,0.15724713242961416,0.36717948717948723,0.6168925964546401,0.36717948717948723,0.2419186652763295,0.36717948717948723,0.42335766423357657
171,0.36933936651583715,0.10886339937434826,0.36933936651583715,0.1451511991657977,0.36933936651583715,0.15724713242961416,0.36933936651583715,0.6168925964546401,0.36933936651583715,0.25401459854014596,0.36933936651583715,0.42335766423357657
172,0.3714992458521871,0.10886339937434826,0.3714992458521871,0.1451511991657977,0.3714992458521871,0.15724713242961416,0.3714992458521871,0.6168925964546401,0.3714992458521871,0.26611053180396244,0.3714992458521871,0.42335766423357657
173,0.373659125188537,0.10886339937434826,0.373659125188537,0.1451511991657977,0.373659125188537,0.15724713242961416,0.373659125188537,0.6289885297184566,0.373659125188537,0.26611053180396244,0.373659125188537,0.43545359749739304
174,0.3758190045248869,0.10886339937434826,0.3758190045248869,0.1451511991657977,0.3758190045248869,0.15724713242961416,0.3758190045248869,0.6289885297184566,0.3758190045248869,0.26611053180396244,0.3758190045248869,0.43545359749739304
175,0.37797888386123685,0.10886339937434826,0.37797888386123685,0.1451511991657977,0.37797888386123685,0.15724713242961416,0.37797888386123685,0.6289885297184566,0.37797888386123685,0.26611053180396244,0.37797888386123685,0.43545359749739304
176,0.38013876319758677,0.10886339937434826,0.38013876319758677,0.1451511991657977,0.38013876319758677,0.15724713242961416,0.38013876319758677,0.6410844629822731,0.38013876319758677,0.26611053180396244,0.38013876319758677,0.43545359749739304
177,0.3822986425339367,0.10886339937434826,0.3822986425339367,0.1451511991657977,0.3822986425339367,0.15724713242961416,0.3822986425339367,0.6410844629822731,0.3822986425339367,0.26611053180396244,0.3822986425339367,0.43545359749739304
178,0.3844585218702866,0.10886339937434826,0.3844585218702866,0.1451511991657977,0.3844585218702866,0.15724713242961416,0.3844585218702866,0.6410844629822731,0.3844585218702866,0.26611053180396244,0.3844585218702866,0.43545359749739304
179,0.38661840120663654,0.10886339937434826,0.38661840120663654,0.1451511991657977,0.38661840120663654,0.15724713242961416,0.38661840120663654,0.6410844629822731,0.38661840120663654,0.26611053180396244,0.38661840120663654,0.43545359749739304
180,0.38877828054298647,0.10886339937434826,0.38877828054298647,0.1451511991657977,0.38877828054298647,0.15724713242961416,0.38877828054298647,0.6531803962460896,0.38877828054298647,0.26611053180396244,0.38877828054298647,0.43545359749739304
181,0.3909381598793364,0.09676746611053179,0.3909381598793364,0.1451511991657977,0.3909381598793364,0.15724713242961416,0.3909381598793364,0.6531803962460896,0.3909381598793364,0.26611053180396244,0.3909381598793364,0.43545359749739304
182,0.3930980392156863,0.09676746611053179,0.3930980392156863,0.1451511991657977,0.3930980392156863,0.15724713242961416,0.3930980392156863,0.6531803962460896,0.3930980392156863,0.26611053180396244,0.3930980392156863,0.43545359749739304
183,0.39525791855203624,0.08467153284671532,0.39525791855203624,0.1451511991657977,0.39525791855203624,0.15724713242961416,0.39525791855203624,0.6531803962460896,0.39525791855203624,0.26611053180396244,0.39525791855203624,0.43545359749739304
184,0.39741779788838616,0.08467153284671532,0.39741779788838616,0.1451511991657977,0.39741779788838616,0.15724713242961416,0.39741779788838616,0.6531803962460896,0.39741779788838616,0.26611053180396244,0.39741779788838616,0.43545359749739304
185,0.3995776772247361,0.07257559958289884,0.3995776772247361,0.1451511991657977,0.3995776772247361,0.15724713242961416,0.3995776772247361,0.6531803962460896,0.3995776772247361,0.26611053180396244,0.3995776772247361,0.43545359749739304
186,0.401737556561086,0.07257559958289884,0.401737556561086,0.1451511991657977,0.401737556561086,0.15724713242961416,0.401737556561086,0.6531803962460896,0.401737556561086,0.26611053180396244,0.401737556561086,0.43545359749739304
187,0.40389743589743593,0.06047966631908237,0.40389743589743593,0.1451511991657977,0.40389743589743593,0.16934306569343063,0.40389743589743593,0.6652763295099061,0.40389743589743593,0.26611053180396244,0.40389743589743593,0.43545359749739304
188,0.40605731523378585,0.048383733055265894,0.40605731523378585,0.1451511991657977,0.40605731523378585,0.16934306569343063,0.40605731523378585,0.6652763295099061,0.40605731523378585,0.26611053180396244,0.40605731523378585,0.43545359749739304
189,0.4082171945701358,0.048383733055265894,0.4082171945701358,0.1451511991657977,0.4082171945701358,0.16934306569343063,0.4082171945701358,0.6773722627737225,0.4082171945701358,0.26611053180396244,0.4082171945701358,0.43545359749739304
190,0.4103770739064857,0.06047966631908237,0.4103770739064857,0.1451511991657977,0.4103770739064857,0.1814389989572471,0.4103770739064857,0.6773722627737225,0.4103770739064857,0.26611053180396244,0.4103770739064857,0.43545359749739304
191,0.4125369532428356,0.07257559958289884,0.4125369532428356,0.1451511991657977,0.4125369532428356,0.1814389989572471,0.4125369532428356,0.6894681960375391,0.4125369532428356,0.25401459854014596,0.4125369532428356,0.43545359749739304
192,0.41469683257918555,0.08467153284671532,0.41469683257918555,0.1451511991657977,0.41469683257918555,0.1814389989572471,0.41469683257918555,0.6894681960375391,0.41469683257918555,0.2419186652763295,0.41469683257918555,0.43545359749739304
193,0.41685671191553547,0.09676746611053179,0.41685671191553547,0.1451511991657977,0.41685671191553547,0.1814389989572471,0.41685671191553547,0.6894681960375391,0.41685671191553547,0.2419186652763295,0.41685671191553547,0.43545359749739304
194,0.4190165912518854,0.09676746611053179,0.4190165912518854,0.15724713242961416,0.4190165912518854,0.1814389989572471,0.4190165912518854,0.6894681960375391,0.4190165912518854,0.229822732012513,0.4190165912518854,0.43545359749739304
195,0.4211764705882353,0.09676746611053179,0.4211764705882353,0.15724713242961416,0.4211764705882353,0.1814389989572471,0.4211764705882353,0.6894681960375391,0.4211764705882353,0.229822732012513,0.4211764705882353,0.43545359749739304
196,0.42333634992458524,0.09676746611053179,0.42333634992458524,0.15724713242961416,0.42333634992458524,0.1814389989572471,0.42333634992458524,0.6894681960375391,0.42333634992458524,0.21772679874869652,0.42333634992458524,0.43545359749739304
197,0.42549622926093517,0.10886339937434826,0.42549622926093517,0.15724713242961416,0.42549622926093517,0.1814389989572471,0.42549622926093517,0.6894681960375391,0.42549622926093517,0.21772679874869652,0.42549622926093517,0.43545359749739304
198,0.4276561085972851,0.10886339937434826,0.4276561085972851,0.15724713242961416,0.4276561085972851,0.1814389989572471,0.4276561085972851,0.6894681960375391,0.4276561085972851,0.21772679874869652,0.4276561085972851,0.43545359749739304
199,0.429815987933635,0.10886339937434826,0.429815987933635,0.15724713242961416,0.429815987933635,0.1814389989572471,0.429815987933635,0.6894681960375391,0.429815987933635,0.21772679874869652,0.429815987933635,0.43545359749739304
200,0.43197586726998494,0.10886339937434826,0.43197586726998494,0.15724713242961416,0.43197586726998494,0.1814389989572471,0.43197586726998494,0.6894681960375391,0.43197586726998494,0.21772679874869652,0.43197586726998494,0.43545359749739304
201,0.43413574660633486,0.10886339937434826,0.43413574660633486,0.15724713242961416,0.43413574660633486,0.1814389989572471,0.43413574660633486,0.6894681960375391,0.43413574660633486,0.229822732012513,0.43413574660633486,0.43545359749739304
202,0.4362956259426848,0.10886339937434826,0.4362956259426848,0.15724713242961416,0.4362956259426848,0.1814389989572471,0.4362956259426848,0.6894681960375391,0.4362956259426848,0.2419186652763295,0.4362956259426848,0.4475495307612095
203,0.4384555052790347,0.10886339937434826,0.4384555052790347,0.15724713242961416,0.4384555052790347,0.1814389989572471,0.4384555052790347,0.6894681960375391,0.4384555052790347,0.2419186652763295,0.4384555052790347,0.4475495307612095
204,0.44061538461538463,0.10886339937434826,0.44061538461538463,0.15724713242961416,0.44061538461538463,0.1814389989572471,0.44061538461538463,0.6894681960375391,0.44061538461538463,0.25401459854014596,0.44061538461538463,0.4475495307612095
205,0.44277526395173455,0.10886339937434826,0.44277526395173455,0.15724713242961416,0.44277526395173455,0.1814389989572471,0.44277526395173455,0.6894681960375391,0.44277526395173455,0.26611053180396244,0.44277526395173455,0.4475495307612095
206,0.4449351432880845,0.10886339937434826,0.4449351432880845,0.15724713242961416,0.4449351432880845,0.1814389989572471,0.4449351432880845,0.6894681960375391,0.4449351432880845,0.26611053180396244,0.4449351432880845,0.4475495307612095
207,0.4470950226244344,0.10886339937434826,0.4470950226244344,0.15724713242961416,0.4470950226244344,0.1814389989572471,0.4470950226244344,0.6894681960375391,0.4470950226244344,0.26611053180396244,0.4470950226244344,0.4475495307612095
208,0.4492549019607843,0.10886339937434826,0.4492549019607843,0.15724713242961416,0.4492549019607843,0.1814389989572471,0.4492549019607843,0.6894681960375391,0.4492549019607843,0.26611053180396244,0.4492549019607843,0.4475495307612095
209,0.45141478129713425,0.10886339937434826,0.45141478129713425,0.15724713242961416,0.45141478129713425,0.1814389989572471,0.45141478129713425,0.6894681960375391,0.45141478129713425,0.26611053180396244,0.45141478129713425,0.4475495307612095
210,0.4535746606334842,0.10886339937434826,0.4535746606334842,0.15724713242961416,0.4535746606334842,0.1814389989572471,0.4535746606334842,0.6773722627737225,0.4535746606334842,0.26611053180396244,0.4535746606334842,0.4475495307612095
211,0.4557345399698341,0.10886339937434826,0.4557345399698341,0.15724713242961416,0.4557345399698341,0.1814389989572471,0.4557345399698341,0.6652763295099061,0.4557345399698341,0.26611053180396244,0.4557345399698341,0.4475495307612095
212,0.457894419306184,0.10886339937434826,0.457894419306184,0.15724713242961416,0.457894419306184,0.1814389989572471,0.457894419306184,0.6410844629822731,0.457894419306184,0.26611053180396244,0.457894419306184,0.4475495307612095
213,0.46005429864253394,0.10886339937434826,0.46005429864253394,0.15724713242961416,0.46005429864253394,0.1814389989572471,0.46005429864253394,0.6289885297184566,0.46005429864253394,0.26611053180396244,0.46005429864253394,0.4475495307612095
214,0.46221417797888387,0.10886339937434826,0.46221417797888387,0.15724713242961416,0.46221417797888387,0.1814389989572471,0.46221417797888387,0.6289885297184566,0.46221417797888387,0.26611053180396244,0.46221417797888387,0.4475495307612095
215,0.4643740573152338,0.10886339937434826,0.4643740573152338,0.15724713242961416,0.4643740573152338,0.1814389989572471,0.4643740573152338,0.6168925964546401,0.4643740573152338,0.26611053180396244,0.4643740573152338,0.4475495307612095
216,0.46653393665158377,0.10886339937434826,0.46653393665158377,0.15724713242961416,0.46653393665158377,0.1814389989572471,0.46653393665158377,0.6168925964546401,0.46653393665158377,0.26611053180396244,0.46653393665158377,0.4475495307612095
217,0.4686938159879337,0.12095933263816475,0.4686938159879337,0.15724713242961416,0.4686938159879337,0.16934306569343063,0.4686938159879337,0.6047966631908237,0.4686938159879337,0.26611053180396244,0.4686938159879337,0.4475495307612095
218,0.4708536953242836,0.12095933263816475,0.4708536953242836,0.15724713242961416,0.4708536953242836,0.16934306569343063,0.4708536953242836,0.6047966631908237,0.4708536953242836,0.26611053180396244,0.4708536953242836,0.4475495307612095
219,0.47301357466063354,0.12095933263816475,0.47301357466063354,0.15724713242961416,0.47301357466063354,0.1814389989572471,0.47301357466063354,0.6047966631908237,0.47301357466063354,0.26611053180396244,0.47301357466063354,0.4475495307612095
220,0.47517345399698346,0.12095933263816475,0.47517345399698346,0.15724713242961416,0.47517345399698346,0.19353493222106358,0.47517345399698346,0.5927007299270072,0.47517345399698346,0.26611053180396244,0.47517345399698346,0.4475495307612095
221,0.4773333333333334,0.12095933263816475,0.4773333333333334,0.15724713242961416,0.4773333333333334,0.19353493222106358,0.4773333333333334,0.5927007299270072,0.4773333333333334,0.26611053180396244,0.4773333333333334,0.4475495307612095
222,0.4794932126696833,0.13305526590198122,0.4794932126696833,0.15724713242961416,0.4794932126696833,0.19353493222106358,0.4794932126696833,0.5927007299270072,0.4794932126696833,0.26611053180396244,0.4794932126696833,0.4475495307612095
223,0.48165309200603323,0.13305526590198122,0.48165309200603323,0.15724713242961416,0.48165309200603323,0.19353493222106358,0.48165309200603323,0.5927007299270072,0.48165309200603323,0.26611053180396244,0.48165309200603323,0.4475495307612095
224,0.48381297134238316,0.13305526590198122,0.48381297134238316,0.15724713242961416,0.48381297134238316,0.19353493222106358,0.48381297134238316,0.6047966631908237,0.48381297134238316,0.2419186652763295,0.48381297134238316,0.4475495307612095
225,0.4859728506787331,0.13305526590198122,0.4859728506787331,0.15724713242961416,0.4859728506787331,0.19353493222106358,0.4859728506787331,0.6047966631908237,0.4859728506787331,0.229822732012513,0.4859728506787331,0.4475495307612095
226,0.488132730015083,0.13305526590198122,0.488132730015083,0.15724713242961416,0.488132730015083,0.19353493222106358,0.488132730015083,0.6047966631908237,0.488132730015083,0.21772679874869652,0.488132730015083,0.4475495307612095
227,0.49029260935143293,0.1451511991657977,0.49029260935143293,0.15724713242961416,0.49029260935143293,0.19353493222106358,0.49029260935143293,0.6047966631908237,0.49029260935143293,0.21772679874869652,0.49029260935143293,0.459645464025026
228,0.49245248868778285,0.1451511991657977,0.49245248868778285,0.15724713242961416,0.49245248868778285,0.19353493222106358,0.49245248868778285,0.6047966631908237,0.49245248868778285,0.21772679874869652,0.49245248868778285,0.483837330552659
229,0.4946123680241328,0.1451511991657977,0.4946123680241328,0.15724713242961416,0.4946123680241328,0.19353493222106358,0.4946123680241328,0.6047966631908237,0.4946123680241328,0.21772679874869652,0.4946123680241328,0.5080291970802919
230,0.4967722473604827,0.1451511991657977,0.4967722473604827,0.15724713242961416,0.4967722473604827,0.19353493222106358,0.4967722473604827,0.6047966631908237,0.4967722473604827,0.21772679874869652,0.4967722473604827,0.5201251303441083
231,0.4989321266968326,0.1451511991657977,0.4989321266968326,0.15724713242961416,0.4989321266968326,0.19353493222106358,0.4989321266968326,0.6047966631908237,0.4989321266968326,0.229822732012513,0.4989321266968326,0.5201251303441083
232,0.5010920060331825,0.1451511991657977,0.5010920060331825,0.15724713242961416,0.5010920060331825,0.19353493222106358,0.5010920060331825,0.6047966631908237,0.5010920060331825,0.229822732012513,0.5010920060331825,0.5201251303441083
233,0.5032518853695325,0.1451511991657977,0.5032518853695325,0.15724713242961416,0.5032518853695325,0.19353493222106358,0.5032518853695325,0.6047966631908237,0.5032518853695325,0.229822732012513,0.5032518853695325,0.5201251303441083
234,0.5054117647058823,0.1451511991657977,0.5054117647058823,0.15724713242961416,0.5054117647058823,0.19353493222106358,0.5054117647058823,0.6047966631908237,0.5054117647058823,0.229822732012513,0.5054117647058823,0.5201251303441083
235,0.5075716440422323,0.1451511991657977,0.5075716440422323,0.15724713242961416,0.5075716440422323,0.19353493222106358,0.5075716440422323,0.6047966631908237,0.5075716440422323,0.2419186652763295,0.5075716440422323,0.5201251303441083
236,0.5097315233785822,0.1451511991657977,0.5097315233785822,0.15724713242961416,0.5097315233785822,0.19353493222106358,0.5097315233785822,0.6047966631908237,0.5097315233785822,0.25401459854014596,0.5097315233785822,0.5201251303441083
237,0.5118914027149322,0.1451511991657977,0.5118914027149322,0.15724713242961416,0.5118914027149322,0.19353493222106358,0.5118914027149322,0.6047966631908237,0.5118914027149322,0.2782064650677789,0.5118914027149322,0.5201251303441083
238,0.514051282051282,0.1451511991657977,0.514051282051282,0.15724713242961416,0.514051282051282,0.19353493222106358,0.514051282051282,0.6047966631908237,0.514051282051282,0.30239833159541185,0.514051282051282,0.5201251303441083
239,0.516211161387632,0.1451511991657977,0.516211161387632,0.15724713242961416,0.516211161387632,0.19353493222106358,0.516211161387632,0.6047966631908237,0.516211161387632,0.3144942648592283,0.516211161387632,0.5201251303441083
240,0.518371040723982,0.1451511991657977,0.518371040723982,0.15724713242961416,0.518371040723982,0.19353493222106358,0.518371040723982,0.6047966631908237,0.518371040723982,0.3144942648592283,0.518371040723982,0.5201251303441083
241,0.5205309200603319,0.1451511991657977,0.5205309200603319,0.15724713242961416,0.5205309200603319,0.19353493222106358,0.5205309200603319,0.6047966631908237,0.5205309200603319,0.3144942648592283,0.5205309200603319,0.5201251303441083
242,0.5226907993966818,0.1451511991657977,0.5226907993966818,0.15724713242961416,0.5226907993966818,0.1814389989572471,0.5226907993966818,0.6047966631908237,0.5226907993966818,0.3144942648592283,0.5226907993966818,0.5201251303441083
243,0.5248506787330317,0.1451511991657977,0.5248506787330317,0.15724713242961416,0.5248506787330317,0.1814389989572471,0.5248506787330317,0.6047966631908237,0.5248506787330317,0.3144942648592283,0.5248506787330317,0.5201251303441083
244,0.5270105580693817,0.1451511991657977,0.5270105580693817,0.15724713242961416,0.5270105580693817,0.1814389989572471,0.5270105580693817,0.6047966631908237,0.5270105580693817,0.3144942648592283,0.5270105580693817,0.5201251303441083
245,0.5291704374057316,0.1451511991657977,0.5291704374057316,0.15724713242961416,0.5291704374057316,0.1814389989572471,0.5291704374057316,0.6047966631908237,0.5291704374057316,0.3144942648592283,0.5291704374057316,0.5201251303441083
246,0.5313303167420815,0.1451511991657977,0.5313303167420815,0.15724713242961416,0.5313303167420815,0.16934306569343063,0.5313303167420815,0.5927007299270072,0.5313303167420815,0.3144942648592283,0.5313303167420815,0.5201251303441083
247,0.5334901960784314,0.1451511991657977,0.5334901960784314,0.15724713242961416,0.5334901960784314,0.16934306569343063,0.5334901960784314,0.5927007299270072,0.5334901960784314,0.3144942648592283,0.5334901960784314,0.5201251303441083
248,0.5356500754147814,0.1451511991657977,0.5356500754147814,0.15724713242961416,0.5356500754147814,0.16934306569343063,0.5356500754147814,0.5927007299270072,0.5356500754147814,0.3144942648592283,0.5356500754147814,0.5201251303441083
249,0.5378099547511312,0.1451511991657977,0.5378099547511312,0.15724713242961416,0.5378099547511312,0.16934306569343063,0.5378099547511312,0.5927007299270072,0.5378099547511312,0.3144942648592283,0.5378099547511312,0.5080291970802919
250,0.5399698340874812,0.1451511991657977,0.5399698340874812,0.15724713242961416,0.5399698340874812,0.16934306569343063,0.5399698340874812,0.5927007299270072,0.5399698340874812,0.3144942648592283,0.5399698340874812,0.49593326381647546
251,0.5421297134238311,0.1451511991657977,0.5421297134238311,0.15724713242961416,0.5421297134238311,0.16934306569343063,0.5421297134238311,0.5927007299270072,0.5421297134238311,0.3144942648592283,0.5421297134238311,0.483837330552659
252,0.5442895927601811,0.1451511991657977,0.5442895927601811,0.15724713242961416,0.5442895927601811,0.16934306569343063,0.5442895927601811,0.5927007299270072,0.5442895927601811,0.3144942648592283,0.5442895927601811,0.47174139728884246
253,0.5464494720965309,0.1451511991657977,0.5464494720965309,0.15724713242961416,0.5464494720965309,0.1814389989572471,0.5464494720965309,0.6047966631908237,0.5464494720965309,0.3144942648592283,0.5464494720965309,0.459645464025026
254,0.5486093514328809,0.1451511991657977,0.5486093514328809,0.15724713242961416,0.5486093514328809,0.1814389989572471,0.5486093514328809,0.6047966631908237,0.5486093514328809,0.3144942648592283,0.5486093514328809,0.459645464025026
255,0.5507692307692308,0.1451511991657977,0.5507692307692308,0.15724713242961416,0.5507692307692308,0.1814389989572471,0.5507692307692308,0.6047966631908237,0.5507692307692308,0.3144942648592283,0.5507692307692308,0.459645464025026
256,0.5529291101055808,0.1451511991657977,0.5529291101055808,0.15724713242961416,0.5529291101055808,0.1814389989572471,0.5529291101055808,0.6047966631908237,0.5529291101055808,0.3144942648592283,0.5529291101055808,0.4475495307612095
257,0.5550889894419306,0.1451511991657977,0.5550889894419306,0.15724713242961416,0.5550889894419306,0.1814389989572471,0.5550889894419306,0.6168925964546401,0.5550889894419306,0.3144942648592283,0.5550889894419306,0.4475495307612095
258,0.5572488687782806,0.1451511991657977,0.5572488687782806,0.15724713242961416,0.5572488687782806,0.1814389989572471,0.5572488687782806,0.6168925964546401,0.5572488687782806,0.3144942648592283,0.5572488687782806,0.4475495307612095
259,0.5594087481146305,0.1451511991657977,0.5594087481146305,0.15724713242961416,0.5594087481146305,0.1814389989572471,0.5594087481146305,0.6289885297184566,0.5594087481146305,0.3144942648592283,0.5594087481146305,0.4475495307612095
260,0.5615686274509805,0.1451511991657977,0.5615686274509805,0.15724713242961416,0.5615686274509805,0.1814389989572471,0.5615686274509805,0.6289885297184566,0.5615686274509805,0.3144942648592283,0.5615686274509805,0.4475495307612095
261,0.5637285067873303,0.1451511991657977,0.5637285067873303,0.15724713242961416,0.5637285067873303,0.1814389989572471,0.5637285067873303,0.6289885297184566,0.5637285067873303,0.3144942648592283,0.5637285067873303,0.4475495307612095
262,0.5658883861236803,0.1451511991657977,0.5658883861236803,0.15724713242961416,0.5658883861236803,0.1814389989572471,0.5658883861236803,0.6289885297184566,0.5658883861236803,0.3144942648592283,0.5658883861236803,0.4475495307612095
263,0.5680482654600302,0.1451511991657977,0.5680482654600302,0.15724713242961416,0.5680482654600302,0.1814389989572471,0.5680482654600302,0.6289885297184566,0.5680482654600302,0.3144942648592283,0.5680482654600302,0.459645464025026
264,0.5702081447963802,0.1451511991657977,0.5702081447963802,0.15724713242961416,0.5702081447963802,0.1814389989572471,0.5702081447963802,0.6289885297184566,0.5702081447963802,0.3144942648592283,0.5702081447963802,0.459645464025026
265,0.57236802413273,0.1451511991657977,0.57236802413273,0.15724713242961416,0.57236802413273,0.1814389989572471,0.57236802413273,0.6289885297184566,0.57236802413273,0.3144942648592283,0.57236802413273,0.47174139728884246
266,0.57452790346908,0.1451511991657977,0.57452790346908,0.15724713242961416,0.57452790346908,0.1814389989572471,0.57452790346908,0.6289885297184566,0.57452790346908,0.3144942648592283,0.57452790346908,0.47174139728884246
267,0.5766877828054299,0.1451511991657977,0.5766877828054299,0.15724713242961416,0.5766877828054299,0.1814389989572471,0.5766877828054299,0.6289885297184566,0.5766877828054299,0.3144942648592283,0.5766877828054299,0.47174139728884246
268,0.5788476621417799,0.1451511991657977,0.5788476621417799,0.15724713242961416,0.5788476621417799,0.1814389989572471,0.5788476621417799,0.6289885297184566,0.5788476621417799,0.3144942648592283,0.5788476621417799,0.47174139728884246
269,0.5810075414781297,0.13305526590198122,0.5810075414781297,0.15724713242961416,0.5810075414781297,0.1814389989572471,0.5810075414781297,0.6289885297184566,0.5810075414781297,0.3144942648592283,0.5810075414781297,0.47174139728884246
270,0.5831674208144797,0.13305526590198122,0.5831674208144797,0.15724713242961416,0.5831674208144797,0.1814389989572471,0.5831674208144797,0.6289885297184566,0.5831674208144797,0.3144942648592283,0.5831674208144797,0.47174139728884246
271,0.5853273001508296,0.13305526590198122,0.5853273001508296,0.15724713242961416,0.5853273001508296,0.1814389989572471,0.5853273001508296,0.6289885297184566,0.5853273001508296,0.3144942648592283,0.5853273001508296,0.47174139728884246
272,0.5874871794871795,0.12095933263816475,0.5874871794871795,0.1451511991657977,0.5874871794871795,0.1814389989572471,0.5874871794871795,0.6289885297184566,0.5874871794871795,0.3144942648592283,0.5874871794871795,0.47174139728884246
273,0.5896470588235294,0.13305526590198122,0.5896470588235294,0.1451511991657977,0.5896470588235294,0.16934306569343063,0.5896470588235294,0.6289885297184566,0.5896470588235294,0.3144942648592283,0.5896470588235294,0.47174139728884246
274,0.5918069381598794,0.13305526590198122,0.5918069381598794,0.1451511991657977,0.5918069381598794,0.16934306569343063,0.5918069381598794,0.6289885297184566,0.5918069381598794,0.3144942648592283,0.5918069381598794,0.47174139728884246
275,0.5939668174962293,0.13305526590198122,0.5939668174962293,0.15724713242961416,0.5939668174962293,0.1814389989572471,0.5939668174962293,0.6289885297184566,0.5939668174962293,0.3144942648592283,0.5939668174962293,0.47174139728884246
276,0.5961266968325792,0.13305526590198122,0.5961266968325792,0.15724713242961416,0.5961266968325792,0.1814389989572471,0.5961266968325792,0.6289885297184566,0.5961266968325792,0.3144942648592283,0.5961266968325792,0.47174139728884246
277,0.5982865761689291,0.13305526590198122,0.5982865761689291,0.15724713242961416,0.5982865761689291,0.19353493222106358,0.5982865761689291,0.6289885297184566,0.5982865761689291,0.3144942648592283,0.5982865761689291,0.47174139728884246
278,0.6004464555052791,0.13305526590198122,0.6004464555052791,0.15724713242961416,0.6004464555052791,0.19353493222106358,0.6004464555052791,0.6168925964546401,0.6004464555052791,0.3144942648592283,0.6004464555052791,0.47174139728884246
279,0.602606334841629,0.13305526590198122,0.602606334841629,0.15724713242961416,0.602606334841629,0.19353493222106358,0.602606334841629,0.6168925964546401,0.602606334841629,0.3144942648592283,0.602606334841629,0.47174139728884246
280,0.6047662141779789,0.13305526590198122,0.6047662141779789,0.15724713242961416,0.6047662141779789,0.19353493222106358,0.6047662141779789,0.6410844629822731,0.6047662141779789,0.2903023983315954,0.6047662141779789,0.47174139728884246
281,0.6069260935143288,0.13305526590198122,0.6069260935143288,0.15724713242961416,0.6069260935143288,0.19353493222106358,0.6069260935143288,0.6652763295099061,0.6069260935143288,0.26611053180396244,0.6069260935143288,0.47174139728884246
282,0.6090859728506788,0.13305526590198122,0.6090859728506788,0.15724713242961416,0.6090859728506788,0.19353493222106358,0.6090859728506788,0.6773722627737225,0.6090859728506788,0.25401459854014596,0.6090859728506788,0.47174139728884246
283,0.6112458521870286,0.13305526590198122,0.6112458521870286,0.15724713242961416,0.6112458521870286,0.19353493222106358,0.6112458521870286,0.6773722627737225,0.6112458521870286,0.2419186652763295,0.6112458521870286,0.483837330552659
284,0.6134057315233786,0.13305526590198122,0.6134057315233786,0.15724713242961416,0.6134057315233786,0.19353493222106358,0.6134057315233786,0.6773722627737225,0.6134057315233786,0.2419186652763295,0.6134057315233786,0.483837330552659
285,0.6155656108597285,0.13305526590198122,0.6155656108597285,0.15724713242961416,0.6155656108597285,0.19353493222106358,0.6155656108597285,0.6773722627737225,0.6155656108597285,0.2419186652763295,0.6155656108597285,0.49593326381647546
286,0.6177254901960785,0.13305526590198122,0.6177254901960785,0.15724713242961416,0.6177254901960785,0.19353493222106358,0.6177254901960785,0.6773722627737225,0.6177254901960785,0.2419186652763295,0.6177254901960785,0.5080291970802919
287,0.6198853695324285,0.13305526590198122,0.6198853695324285,0.15724713242961416,0.6198853695324285,0.19353493222106358,0.6198853695324285,0.6773722627737225,0.6198853695324285,0.2419186652763295,0.6198853695324285,0.5080291970802919
288,0.6220452488687783,0.13305526590198122,0.6220452488687783,0.15724713242961416,0.6220452488687783,0.19353493222106358,0.6220452488687783,0.6773722627737225,0.6220452488687783,0.2419186652763295,0.6220452488687783,0.5080291970802919
289,0.6242051282051283,0.13305526590198122,0.6242051282051283,0.15724713242961416,0.6242051282051283,0.19353493222106358,0.6242051282051283,0.6773722627737225,0.6242051282051283,0.25401459854014596,0.6242051282051283,0.5080291970802919
290,0.6263650075414782,0.13305526590198122,0.6263650075414782,0.15724713242961416,0.6263650075414782,0.19353493222106358,0.6263650075414782,0.6773722627737225,0.6263650075414782,0.25401459854014596,0.6263650075414782,0.5080291970802919
291,0.6285248868778281,0.13305526590198122,0.6285248868778281,0.15724713242961416,0.6285248868778281,0.19353493222106358,0.6285248868778281,0.6773722627737225,0.6285248868778281,0.25401459854014596,0.6285248868778281,0.5080291970802919
292,0.630684766214178,0.13305526590198122,0.630684766214178,0.15724713242961416,0.630684766214178,0.19353493222106358,0.630684766214178,0.6773722627737225,0.630684766214178,0.26611053180396244,0.630684766214178,0.5080291970802919
293,0.632844645550528,0.13305526590198122,0.632844645550528,0.15724713242961416,0.632844645550528,0.19353493222106358,0.632844645550528,0.6773722627737225,0.632844645550528,0.26611053180396244,0.632844645550528,0.5080291970802919
294,0.6350045248868779,0.13305526590198122,0.6350045248868779,0.15724713242961416,0.6350045248868779,0.19353493222106358,0.6350045248868779,0.6773722627737225,0.6350045248868779,0.26611053180396244,0.6350045248868779,0.5080291970802919
295,0.6371644042232278,0.13305526590198122,0.6371644042232278,0.15724713242961416,0.6371644042232278,0.19353493222106358,0.6371644042232278,0.6773722627737225,0.6371644042232278,0.26611053180396244,0.6371644042232278,0.5080291970802919
296,0.6393242835595777,0.13305526590198122,0.6393242835595777,0.15724713242961416,0.6393242835595777,0.19353493222106358,0.6393242835595777,0.6773722627737225,0.6393242835595777,0.26611053180396244,0.6393242835595777,0.5080291970802919
297,0.6414841628959277,0.13305526590198122,0.6414841628959277,0.15724713242961416,0.6414841628959277,0.19353493222106358,0.6414841628959277,0.6773722627737225,0.6414841628959277,0.26611053180396244,0.6414841628959277,0.5080291970802919
298,0.6436440422322776,0.13305526590198122,0.6436440422322776,0.15724713242961416,0.6436440422322776,0.20563086548488005,0.6436440422322776,0.6773722627737225,0.6436440422322776,0.26611053180396244,0.6436440422322776,0.5080291970802919
299,0.6458039215686275,0.13305526590198122,0.6458039215686275,0.15724713242961416,0.6458039215686275,0.20563086548488005,0.6458039215686275,0.6773722627737225,0.6458039215686275,0.26611053180396244,0.6458039215686275,0.5080291970802919
300,0.6479638009049774,0.13305526590198122,0.6479638009049774,0.15724713242961416,0.6479638009049774,0.20563086548488005,0.6479638009049774,0.6773722627737225,0.6479638009049774,0.26611053180396244,0.6479638009049774,0.5080291970802919
301,0.6501236802413274,0.13305526590198122,0.6501236802413274,0.15724713242961416,0.6501236802413274,0.20563086548488005,0.6501236802413274,0.6652763295099061,0.6501236802413274,0.26611053180396244,0.6501236802413274,0.5080291970802919
302,0.6522835595776773,0.13305526590198122,0.6522835595776773,0.15724713242961416,0.6522835595776773,0.20563086548488005,0.6522835595776773,0.6652763295099061,0.6522835595776773,0.26611053180396244,0.6522835595776773,0.5080291970802919
303,0.6544434389140272,0.13305526590198122,0.6544434389140272,0.15724713242961416,0.6544434389140272,0.20563086548488005,0.6544434389140272,0.6773722627737225,0.6544434389140272,0.26611053180396244,0.6544434389140272,0.5080291970802919
304,0.6566033182503771,0.13305526590198122,0.6566033182503771,0.15724713242961416,0.6566033182503771,0.20563086548488005,0.6566033182503771,0.6773722627737225,0.6566033182503771,0.26611053180396244,0.6566033182503771,0.5080291970802919
305,0.6587631975867271,0.1451511991657977,0.6587631975867271,0.15724713242961416,0.6587631975867271,0.20563086548488005,0.6587631975867271,0.6773722627737225,0.6587631975867271,0.26611053180396244,0.6587631975867271,0.49593326381647546
306,0.660923076923077,0.1451511991657977,0.660923076923077,0.15724713242961416,0.660923076923077,0.20563086548488005,0.660923076923077,0.6773722627737225,0.660923076923077,0.26611053180396244,0.660923076923077,0.49593326381647546
307,0.6630829562594269,0.1451511991657977,0.6630829562594269,0.15724713242961416,0.6630829562594269,0.20563086548488005,0.6630829562594269,0.6773722627737225,0.6630829562594269,0.26611053180396244,0.6630829562594269,0.49593326381647546
308,0.6652428355957768,0.1451511991657977,0.6652428355957768,0.15724713242961416,0.6652428355957768,0.20563086548488005,0.6652428355957768,0.6773722627737225,0.6652428355957768,0.26611053180396244,0.6652428355957768,0.49593326381647546
309,0.6674027149321268,0.1451511991657977,0.6674027149321268,0.15724713242961416,0.6674027149321268,0.20563086548488005,0.6674027149321268,0.6773722627737225,0.6674027149321268,0.26611053180396244,0.6674027149321268,0.49593326381647546
310,0.6695625942684766,0.1451511991657977,0.6695625942684766,0.15724713242961416,0.6695625942684766,0.20563086548488005,0.6695625942684766,0.6773722627737225,0.6695625942684766,0.26611053180396244,0.6695625942684766,0.49593326381647546
311,0.6717224736048266,0.1451511991657977,0.6717224736048266,0.15724713242961416,0.6717224736048266,0.20563086548488005,0.6717224736048266,0.6773722627737225,0.6717224736048266,0.25401459854014596,0.6717224736048266,0.49593326381647546
312,0.6738823529411765,0.1451511991657977,0.6738823529411765,0.15724713242961416,0.6738823529411765,0.20563086548488005,0.6738823529411765,0.6773722627737225,0.6738823529411765,0.25401459854014596,0.6738823529411765,0.49593326381647546
313,0.6760422322775265,0.1451511991657977,0.6760422322775265,0.15724713242961416,0.6760422322775265,0.20563086548488005,0.6760422322775265,0.6773722627737225,0.6760422322775265,0.25401459854014596,0.6760422322775265,0.49593326381647546
314,0.6782021116138763,0.1451511991657977,0.6782021116138763,0.15724713242961416,0.6782021116138763,0.20563086548488005,0.6782021116138763,0.6773722627737225,0.6782021116138763,0.25401459854014596,0.6782021116138763,0.49593326381647546
315,0.6803619909502263,0.1451511991657977,0.6803619909502263,0.15724713242961416,0.6803619909502263,0.20563086548488005,0.6803619909502263,0.6773722627737225,0.6803619909502263,0.25401459854014596,0.6803619909502263,0.49593326381647546
316,0.6825218702865762,0.1451511991657977,0.6825218702865762,0.15724713242961416,0.6825218702865762,0.20563086548488005,0.6825218702865762,0.6773722627737225,0.6825218702865762,0.26611053180396244,0.6825218702865762,0.49593326381647546
317,0.6846817496229262,0.1451511991657977,0.6846817496229262,0.15724713242961416,0.6846817496229262,0.20563086548488005,0.6846817496229262,0.6773722627737225,0.6846817496229262,0.26611053180396244,0.6846817496229262,0.49593326381647546
318,0.686841628959276,0.1451511991657977,0.686841628959276,0.15724713242961416,0.686841628959276,0.20563086548488005,0.686841628959276,0.6773722627737225,0.686841628959276,0.26611053180396244,0.686841628959276,0.49593326381647546
319,0.689001508295626,0.1451511991657977,0.689001508295626,0.15724713242961416,0.689001508295626,0.20563086548488005,0.689001508295626,0.6773722627737225,0.689001508295626,0.26611053180396244,0.689001508295626,0.49593326381647546
320,0.6911613876319759,0.1451511991657977,0.6911613876319759,0.15724713242961416,0.6911613876319759,0.19353493222106358,0.6911613876319759,0.6773722627737225,0.6911613876319759,0.26611053180396244,0.6911613876319759,0.49593326381647546
321,0.6933212669683259,0.1451511991657977,0.6933212669683259,0.15724713242961416,0.6933212669683259,0.19353493222106358,0.6933212669683259,0.6773722627737225,0.6933212669683259,0.26611053180396244,0.6933212669683259,0.49593326381647546
322,0.6954811463046757,0.1451511991657977,0.6954811463046757,0.15724713242961416,0.6954811463046757,0.19353493222106358,0.6954811463046757,0.6773722627737225,0.6954811463046757,0.26611053180396244,0.6954811463046757,0.49593326381647546
323,0.6976410256410257,0.1451511991657977,0.6976410256410257,0.15724713242961416,0.6976410256410257,0.19353493222106358,0.6976410256410257,0.6773722627737225,0.6976410256410257,0.26611053180396244,0.6976410256410257,0.49593326381647546
324,0.6998009049773756,0.1451511991657977,0.6998009049773756,0.15724713242961416,0.6998009049773756,0.19353493222106358,0.6998009049773756,0.6773722627737225,0.6998009049773756,0.26611053180396244,0.6998009049773756,0.49593326381647546
325,0.7019607843137255,0.1451511991657977,0.7019607843137255,0.15724713242961416,0.7019607843137255,0.1814389989572471,0.7019607843137255,0.6773722627737225,0.7019607843137255,0.26611053180396244,0.7019607843137255,0.49593326381647546
326,0.7041206636500754,0.13305526590198122,0.7041206636500754,0.15724713242961416,0.7041206636500754,0.1814389989572471,0.7041206636500754,0.6773722627737225,0.7041206636500754,0.26611053180396244,0.7041206636500754,0.49593326381647546
327,0.7062805429864254,0.13305526590198122,0.7062805429864254,0.15724713242961416,0.7062805429864254,0.1814389989572471,0.7062805429864254,0.6773722627737225,0.7062805429864254,0.26611053180396244,0.7062805429864254,0.49593326381647546
328,0.7084404223227753,0.13305526590198122,0.7084404223227753,0.16934306569343063,0.7084404223227753,0.1814389989572471,0.7084404223227753,0.6652763295099061,0.7084404223227753,0.26611053180396244,0.7084404223227753,0.49593326381647546
329,0.7106003016591252,0.13305526590198122,0.7106003016591252,0.16934306569343063,0.7106003016591252,0.1814389989572471,0.7106003016591252,0.6652763295099061,0.7106003016591252,0.26611053180396244,0.7106003016591252,0.483837330552659
330,0.7127601809954751,0.13305526590198122,0.7127601809954751,0.16934306569343063,0.7127601809954751,0.1814389989572471,0.7127601809954751,0.6652763295099061,0.7127601809954751,0.26611053180396244,0.7127601809954751,0.483837330552659
331,0.7149200603318251,0.13305526590198122,0.7149200603318251,0.16934306569343063,0.7149200603318251,0.1814389989572471,0.7149200603318251,0.6652763295099061,0.7149200603318251,0.26611053180396244,0.7149200603318251,0.483837330552659
332,0.717079939668175,0.13305526590198122,0.717079939668175,0.1814389989572471,0.717079939668175,0.1814389989572471,0.717079939668175,0.6652763295099061,0.717079939668175,0.26611053180396244,0.717079939668175,0.483837330552659
333,0.7192398190045249,0.13305526590198122,0.7192398190045249,0.1814389989572471,0.7192398190045249,0.1814389989572471,0.7192398190045249,0.6652763295099061,0.7192398190045249,0.26611053180396244,0.7192398190045249,0.483837330552659
334,0.7213996983408748,0.13305526590198122,0.7213996983408748,0.1814389989572471,0.7213996983408748,0.1814389989572471,0.7213996983408748,0.6531803962460896,0.7213996983408748,0.26611053180396244,0.7213996983408748,0.483837330552659
335,0.7235595776772248,0.13305526590198122,0.7235595776772248,0.19353493222106358,0.7235595776772248,0.1814389989572471,0.7235595776772248,0.6410844629822731,0.7235595776772248,0.26611053180396244,0.7235595776772248,0.483837330552659
336,0.7257194570135748,0.13305526590198122,0.7257194570135748,0.19353493222106358,0.7257194570135748,0.1814389989572471,0.7257194570135748,0.6410844629822731,0.7257194570135748,0.26611053180396244,0.7257194570135748,0.483837330552659
337,0.7278793363499246,0.13305526590198122,0.7278793363499246,0.19353493222106358,0.7278793363499246,0.1814389989572471,0.7278793363499246,0.6289885297184566,0.7278793363499246,0.25401459854014596,0.7278793363499246,0.483837330552659
338,0.7300392156862746,0.13305526590198122,0.7300392156862746,0.19353493222106358,0.7300392156862746,0.1814389989572471,0.7300392156862746,0.6289885297184566,0.7300392156862746,0.2419186652763295,0.7300392156862746,0.483837330552659
339,0.7321990950226245,0.13305526590198122,0.7321990950226245,0.19353493222106358,0.7321990950226245,0.1814389989572471,0.7321990950226245,0.6168925964546401,0.7321990950226245,0.25401459854014596,0.7321990950226245,0.483837330552659
340,0.7343589743589745,0.13305526590198122,0.7343589743589745,0.19353493222106358,0.7343589743589745,0.1814389989572471,0.7343589743589745,0.6168925964546401,0.7343589743589745,0.25401459854014596,0.7343589743589745,0.483837330552659
341,0.7365188536953243,0.13305526590198122,0.7365188536953243,0.19353493222106358,0.7365188536953243,0.1814389989572471,0.7365188536953243,0.6168925964546401,0.7365188536953243,0.26611053180396244,0.7365188536953243,0.483837330552659
342,0.7386787330316743,0.13305526590198122,0.7386787330316743,0.19353493222106358,0.7386787330316743,0.19353493222106358,0.7386787330316743,0.6168925964546401,0.7386787330316743,0.26611053180396244,0.7386787330316743,0.49593326381647546
343,0.7408386123680242,0.13305526590198122,0.7408386123680242,0.19353493222106358,0.7408386123680242,0.19353493222106358,0.7408386123680242,0.6168925964546401,0.7408386123680242,0.2782064650677789,0.7408386123680242,0.49593326381647546
344,0.7429984917043742,0.13305526590198122,0.7429984917043742,0.19353493222106358,0.7429984917043742,0.19353493222106358,0.7429984917043742,0.6168925964546401,0.7429984917043742,0.2782064650677789,0.7429984917043742,0.49593326381647546
345,0.745158371040724,0.13305526590198122,0.745158371040724,0.19353493222106358,0.745158371040724,0.19353493222106358,0.745158371040724,0.6168925964546401,0.745158371040724,0.2782064650677789,0.745158371040724,0.5080291970802919
346,0.747318250377074,0.13305526590198122,0.747318250377074,0.19353493222106358,0.747318250377074,0.19353493222106358,0.747318250377074,0.6168925964546401,0.747318250377074,0.2782064650677789,0.747318250377074,0.5080291970802919
347,0.7494781297134239,0.1451511991657977,0.7494781297134239,0.19353493222106358,0.7494781297134239,0.19353493222106358,0.7494781297134239,0.6168925964546401,0.7494781297134239,0.2782064650677789,0.7494781297134239,0.5080291970802919
348,0.7516380090497738,0.1451511991657977,0.7516380090497738,0.19353493222106358,0.7516380090497738,0.19353493222106358,0.7516380090497738,0.6168925964546401,0.7516380090497738,0.2782064650677789,0.7516380090497738,0.5080291970802919
349,0.7537978883861237,0.1451511991657977,0.7537978883861237,0.19353493222106358,0.7537978883861237,0.19353493222106358,0.7537978883861237,0.6168925964546401,0.7537978883861237,0.2782064650677789,0.7537978883861237,0.5201251303441083
350,0.7559577677224737,0.1451511991657977,0.7559577677224737,0.19353493222106358,0.7559577677224737,0.19353493222106358,0.7559577677224737,0.6168925964546401,0.7559577677224737,0.2782064650677789,0.7559577677224737,0.5201251303441083
351,0.7581176470588236,0.1451511991657977,0.7581176470588236,0.19353493222106358,0.7581176470588236,0.19353493222106358,0.7581176470588236,0.6168925964546401,0.7581176470588236,0.2782064650677789,0.7581176470588236,0.5201251303441083
352,0.7602775263951735,0.15724713242961416,0.7602775263951735,0.19353493222106358,0.7602775263951735,0.19353493222106358,0.7602775263951735,0.6168925964546401,0.7602775263951735,0.2782064650677789,0.7602775263951735,0.5201251303441083
353,0.7624374057315234,0.15724713242961416,0.7624374057315234,0.19353493222106358,0.7624374057315234,0.19353493222106358,0.7624374057315234,0.6168925964546401,0.7624374057315234,0.2782064650677789,0.7624374057315234,0.5322210636079249
354,0.7645972850678734,0.15724713242961416,0.7645972850678734,0.19353493222106358,0.7645972850678734,0.19353493222106358,0.7645972850678734,0.6168925964546401,0.7645972850678734,0.2782064650677789,0.7645972850678734,0.5322210636079249
355,0.7667571644042233,0.15724713242961416,0.7667571644042233,0.19353493222106358,0.7667571644042233,0.19353493222106358,0.7667571644042233,0.6168925964546401,0.7667571644042233,0.2782064650677789,0.7667571644042233,0.5322210636079249
356,0.7689170437405732,0.15724713242961416,0.7689170437405732,0.19353493222106358,0.7689170437405732,0.19353493222106358,0.7689170437405732,0.6168925964546401,0.7689170437405732,0.2782064650677789,0.7689170437405732,0.5322210636079249
357,0.7710769230769231,0.15724713242961416,0.7710769230769231,0.19353493222106358,0.7710769230769231,0.19353493222106358,0.7710769230769231,0.6168925964546401,0.7710769230769231,0.2782064650677789,0.7710769230769231,0.5322210636079249
358,0.7732368024132731,0.15724713242961416,0.7732368024132731,0.19353493222106358,0.7732368024132731,0.19353493222106358,0.7732368024132731,0.6168925964546401,0.7732368024132731,0.2782064650677789,0.7732368024132731,0.5322210636079249
359,0.775396681749623,0.15724713242961416,0.775396681749623,0.19353493222106358,0.775396681749623,0.19353493222106358,0.775396681749623,0.6168925964546401,0.775396681749623,0.2903023983315954,0.775396681749623,0.5322210636079249
360,0.7775565610859729,0.15724713242961416,0.7775565610859729,0.19353493222106358,0.7775565610859729,0.19353493222106358,0.7775565610859729,0.6168925964546401,0.7775565610859729,0.2903023983315954,0.7775565610859729,0.5322210636079249
361,0.7797164404223228,0.15724713242961416,0.7797164404223228,0.19353493222106358,0.7797164404223228,0.19353493222106358,0.7797164404223228,0.6289885297184566,0.7797164404223228,0.30239833159541185,0.7797164404223228,0.5322210636079249
362,0.7818763197586728,0.15724713242961416,0.7818763197586728,0.19353493222106358,0.7818763197586728,0.19353493222106358,0.7818763197586728,0.6289885297184566,0.7818763197586728,0.3144942648592283,0.7818763197586728,0.5322210636079249
363,0.7840361990950226,0.15724713242961416,0.7840361990950226,0.19353493222106358,0.7840361990950226,0.19353493222106358,0.7840361990950226,0.6289885297184566,0.7840361990950226,0.3265901981230448,0.7840361990950226,0.5322210636079249
364,0.7861960784313726,0.15724713242961416,0.7861960784313726,0.19353493222106358,0.7861960784313726,0.19353493222106358,0.7861960784313726,0.6289885297184566,0.7861960784313726,0.33868613138686127,0.7861960784313726,0.5322210636079249
365,0.7883559577677225,0.15724713242961416,0.7883559577677225,0.19353493222106358,0.7883559577677225,0.19353493222106358,0.7883559577677225,0.6289885297184566,0.7883559577677225,0.33868613138686127,0.7883559577677225,0.5322210636079249
366,0.7905158371040725,0.15724713242961416,0.7905158371040725,0.1814389989572471,0.7905158371040725,0.19353493222106358,0.7905158371040725,0.6289885297184566,0.7905158371040725,0.33868613138686127,0.7905158371040725,0.5322210636079249
367,0.7926757164404223,0.15724713242961416,0.7926757164404223,0.1814389989572471,0.7926757164404223,0.19353493222106358,0.7926757164404223,0.6289885297184566,0.7926757164404223,0.33868613138686127,0.7926757164404223,0.5322210636079249
368,0.7948355957767723,0.15724713242961416,0.7948355957767723,0.1814389989572471,0.7948355957767723,0.19353493222106358,0.7948355957767723,0.6289885297184566,0.7948355957767723,0.33868613138686127,0.7948355957767723,0.5322210636079249
369,0.7969954751131222,0.15724713242961416,0.7969954751131222,0.1814389989572471,0.7969954751131222,0.19353493222106358,0.7969954751131222,0.6410844629822731,0.7969954751131222,0.33868613138686127,0.7969954751131222,0.5322210636079249
370,0.7991553544494722,0.15724713242961416,0.7991553544494722,0.1814389989572471,0.7991553544494722,0.19353493222106358,0.7991553544494722,0.6410844629822731,0.7991553544494722,0.33868613138686127,0.7991553544494722,0.5322210636079249
371,0.801315233785822,0.1451511991657977,0.801315233785822,0.1814389989572471,0.801315233785822,0.19353493222106358,0.801315233785822,0.6410844629822731,0.801315233785822,0.33868613138686127,0.801315233785822,0.5322210636079249
372,0.803475113122172,0.1451511991657977,0.803475113122172,0.1814389989572471,0.803475113122172,0.19353493222106358,0.803475113122172,0.6531803962460896,0.803475113122172,0.33868613138686127,0.803475113122172,0.5322210636079249
373,0.8056349924585219,0.1451511991657977,0.8056349924585219,0.1814389989572471,0.8056349924585219,0.19353493222106358,0.8056349924585219,0.6531803962460896,0.8056349924585219,0.33868613138686127,0.8056349924585219,0.5322210636079249
374,0.8077948717948719,0.1451511991657977,0.8077948717948719,0.1814389989572471,0.8077948717948719,0.19353493222106358,0.8077948717948719,0.6531803962460896,0.8077948717948719,0.33868613138686127,0.8077948717948719,0.5201251303441083
375,0.8099547511312217,0.1451511991657977,0.8099547511312217,0.1814389989572471,0.8099547511312217,0.19353493222106358,0.8099547511312217,0.6531803962460896,0.8099547511312217,0.33868613138686127,0.8099547511312217,0.5201251303441083
376,0.8121146304675717,0.1451511991657977,0.8121146304675717,0.1814389989572471,0.8121146304675717,0.19353493222106358,0.8121146304675717,0.6531803962460896,0.8121146304675717,0.33868613138686127,0.8121146304675717,0.5080291970802919
377,0.8142745098039216,0.13305526590198122,0.8142745098039216,0.1814389989572471,0.8142745098039216,0.19353493222106358,0.8142745098039216,0.6531803962460896,0.8142745098039216,0.33868613138686127,0.8142745098039216,0.5080291970802919
378,0.8164343891402716,0.13305526590198122,0.8164343891402716,0.1814389989572471,0.8164343891402716,0.19353493222106358,0.8164343891402716,0.6531803962460896,0.8164343891402716,0.33868613138686127,0.8164343891402716,0.5080291970802919
379,0.8185942684766214,0.13305526590198122,0.8185942684766214,0.1814389989572471,0.8185942684766214,0.19353493222106358,0.8185942684766214,0.6531803962460896,0.8185942684766214,0.33868613138686127,0.8185942684766214,0.5080291970802919
380,0.8207541478129714,0.13305526590198122,0.8207541478129714,0.1814389989572471,0.8207541478129714,0.19353493222106358,0.8207541478129714,0.6531803962460896,0.8207541478129714,0.33868613138686127,0.8207541478129714,0.49593326381647546
381,0.8229140271493213,0.13305526590198122,0.8229140271493213,0.1814389989572471,0.8229140271493213,0.19353493222106358,0.8229140271493213,0.6531803962460896,0.8229140271493213,0.33868613138686127,0.8229140271493213,0.49593326381647546
382,0.8250739064856712,0.13305526590198122,0.8250739064856712,0.1814389989572471,0.8250739064856712,0.19353493222106358,0.8250739064856712,0.6531803962460896,0.8250739064856712,0.33868613138686127,0.8250739064856712,0.49593326381647546
383,0.8272337858220212,0.13305526590198122,0.8272337858220212,0.1814389989572471,0.8272337858220212,0.19353493222106358,0.8272337858220212,0.6531803962460896,0.8272337858220212,0.3265901981230448,0.8272337858220212,0.49593326381647546
384,0.8293936651583711,0.13305526590198122,0.8293936651583711,0.1814389989572471,0.8293936651583711,0.19353493222106358,0.8293936651583711,0.6531803962460896,0.8293936651583711,0.3265901981230448,0.8293936651583711,0.49593326381647546
385,0.8315535444947211,0.13305526590198122,0.8315535444947211,0.1814389989572471,0.8315535444947211,0.19353493222106358,0.8315535444947211,0.6531803962460896,0.8315535444947211,0.3265901981230448,0.8315535444947211,0.49593326381647546
386,0.8337134238310709,0.13305526590198122,0.8337134238310709,0.1814389989572471,0.8337134238310709,0.19353493222106358,0.8337134238310709,0.6531803962460896,0.8337134238310709,0.3144942648592283,0.8337134238310709,0.49593326381647546
387,0.8358733031674209,0.12095933263816475,0.8358733031674209,0.1814389989572471,0.8358733031674209,0.19353493222106358,0.8358733031674209,0.6531803962460896,0.8358733031674209,0.3144942648592283,0.8358733031674209,0.483837330552659
388,0.8380331825037708,0.12095933263816475,0.8380331825037708,0.1814389989572471,0.8380331825037708,0.19353493222106358,0.8380331825037708,0.6531803962460896,0.8380331825037708,0.3144942648592283,0.8380331825037708,0.483837330552659
389,0.8401930618401208,0.12095933263816475,0.8401930618401208,0.1814389989572471,0.8401930618401208,0.19353493222106358,0.8401930618401208,0.6531803962460896,0.8401930618401208,0.3144942648592283,0.8401930618401208,0.483837330552659
390,0.8423529411764706,0.12095933263816475,0.8423529411764706,0.16934306569343063,0.8423529411764706,0.19353493222106358,0.8423529411764706,0.6531803962460896,0.8423529411764706,0.3144942648592283,0.8423529411764706,0.483837330552659
391,0.8445128205128206,0.10886339937434826,0.8445128205128206,0.16934306569343063,0.8445128205128206,0.19353493222106358,0.8445128205128206,0.6531803962460896,0.8445128205128206,0.3144942648592283,0.8445128205128206,0.483837330552659
392,0.8466726998491705,0.12095933263816475,0.8466726998491705,0.16934306569343063,0.8466726998491705,0.19353493222106358,0.8466726998491705,0.6289885297184566,0.8466726998491705,0.3144942648592283,0.8466726998491705,0.483837330552659
393,0.8488325791855205,0.12095933263816475,0.8488325791855205,0.16934306569343063,0.8488325791855205,0.19353493222106358,0.8488325791855205,0.6168925964546401,0.8488325791855205,0.3144942648592283,0.8488325791855205,0.483837330552659
394,0.8509924585218703,0.12095933263816475,0.8509924585218703,0.16934306569343063,0.8509924585218703,0.19353493222106358,0.8509924585218703,0.6289885297184566,0.8509924585218703,0.3144942648592283,0.8509924585218703,0.47174139728884246
395,0.8531523378582203,0.12095933263816475,0.8531523378582203,0.1814389989572471,0.8531523378582203,0.20563086548488005,0.8531523378582203,0.6410844629822731,0.8531523378582203,0.30239833159541185,0.8531523378582203,0.47174139728884246
396,0.8553122171945702,0.13305526590198122,0.8553122171945702,0.1814389989572471,0.8553122171945702,0.20563086548488005,0.8553122171945702,0.6652763295099061,0.8553122171945702,0.2903023983315954,0.8553122171945702,0.47174139728884246
397,0.8574720965309202,0.13305526590198122,0.8574720965309202,0.1814389989572471,0.8574720965309202,0.20563086548488005,0.8574720965309202,0.6773722627737225,0.8574720965309202,0.2903023983315954,0.8574720965309202,0.459645464025026
398,0.85963197586727,0.13305526590198122,0.85963197586727,0.1814389989572471,0.85963197586727,0.20563086548488005,0.85963197586727,0.6894681960375391,0.85963197586727,0.2782064650677789,0.85963197586727,0.459645464025026
399,0.86179185520362,0.1451511991657977,0.86179185520362,0.1814389989572471,0.86179185520362,0.20563086548488005,0.86179185520362,0.7015641293013555,0.86179185520362,0.26611053180396244,0.86179185520362,0.459645464025026
400,0.8639517345399699,0.1451511991657977,0.8639517345399699,0.1814389989572471,0.8639517345399699,0.20563086548488005,0.8639517345399699,0.7015641293013555,0.8639517345399699,0.26611053180396244,0.8639517345399699,0.459645464025026
401,0.8661116138763199,0.1451511991657977,0.8661116138763199,0.1814389989572471,0.8661116138763199,0.20563086548488005,0.8661116138763199,0.7015641293013555,0.8661116138763199,0.26611053180396244,0.8661116138763199,0.459645464025026
402,0.8682714932126697,0.1451511991657977,0.8682714932126697,0.1814389989572471,0.8682714932126697,0.20563086548488005,0.8682714932126697,0.7015641293013555,0.8682714932126697,0.26611053180396244,0.8682714932126697,0.47174139728884246
403,0.8704313725490197,0.1451511991657977,0.8704313725490197,0.1814389989572471,0.8704313725490197,0.20563086548488005,0.8704313725490197,0.7015641293013555,0.8704313725490197,0.2782064650677789,0.8704313725490197,0.47174139728884246
404,0.8725912518853696,0.1451511991657977,0.8725912518853696,0.1814389989572471,0.8725912518853696,0.20563086548488005,0.8725912518853696,0.7015641293013555,0.8725912518853696,0.2782064650677789,0.8725912518853696,0.47174139728884246
405,0.8747511312217195,0.15724713242961416,0.8747511312217195,0.1814389989572471,0.8747511312217195,0.20563086548488005,0.8747511312217195,0.7015641293013555,0.8747511312217195,0.2782064650677789,0.8747511312217195,0.47174139728884246
406,0.8769110105580694,0.15724713242961416,0.8769110105580694,0.1814389989572471,0.8769110105580694,0.20563086548488005,0.8769110105580694,0.7015641293013555,0.8769110105580694,0.2782064650677789,0.8769110105580694,0.483837330552659
407,0.8790708898944194,0.15724713242961416,0.8790708898944194,0.1814389989572471,0.8790708898944194,0.20563086548488005,0.8790708898944194,0.7015641293013555,0.8790708898944194,0.2903023983315954,0.8790708898944194,0.483837330552659
408,0.8812307692307693,0.15724713242961416,0.8812307692307693,0.1814389989572471,0.8812307692307693,0.20563086548488005,0.8812307692307693,0.7015641293013555,0.8812307692307693,0.2903023983315954,0.8812307692307693,0.483837330552659
409,0.8833906485671192,0.15724713242961416,0.8833906485671192,0.1814389989572471,0.8833906485671192,0.20563086548488005,0.8833906485671192,0.7015641293013555,0.8833906485671192,0.2903023983315954,0.8833906485671192,0.483837330552659
410,0.8855505279034691,0.15724713242961416,0.8855505279034691,0.1814389989572471,0.8855505279034691,0.20563086548488005,0.8855505279034691,0.7015641293013555,0.8855505279034691,0.2903023983315954,0.8855505279034691,0.483837330552659
411,0.8877104072398191,0.15724713242961416,0.8877104072398191,0.1814389989572471,0.8877104072398191,0.20563086548488005,0.8877104072398191,0.7015641293013555,0.8877104072398191,0.2903023983315954,0.8877104072398191,0.49593326381647546
412,0.889870286576169,0.15724713242961416,0.889870286576169,0.1814389989572471,0.889870286576169,0.20563086548488005,0.889870286576169,0.7015641293013555,0.889870286576169,0.2903023983315954,0.889870286576169,0.49593326381647546
413,0.8920301659125189,0.15724713242961416,0.8920301659125189,0.1814389989572471,0.8920301659125189,0.20563086548488005,0.8920301659125189,0.7015641293013555,0.8920301659125189,0.2903023983315954,0.8920301659125189,0.49593326381647546
414,0.8941900452488688,0.15724713242961416,0.8941900452488688,0.1814389989572471,0.8941900452488688,0.20563086548488005,0.8941900452488688,0.7015641293013555,0.8941900452488688,0.2903023983315954,0.8941900452488688,0.49593326381647546
415,0.8963499245852188,0.15724713242961416,0.8963499245852188,0.1814389989572471,0.8963499245852188,0.20563086548488005,0.8963499245852188,0.7015641293013555,0.8963499245852188,0.2903023983315954,0.8963499245852188,0.49593326381647546
416,0.8985098039215687,0.15724713242961416,0.8985098039215687,0.1814389989572471,0.8985098039215687,0.20563086548488005,0.8985098039215687,0.7015641293013555,0.8985098039215687,0.2903023983315954,0.8985098039215687,0.49593326381647546
417,0.9006696832579186,0.15724713242961416,0.9006696832579186,0.1814389989572471,0.9006696832579186,0.20563086548488005,0.9006696832579186,0.7015641293013555,0.9006696832579186,0.2903023983315954,0.9006696832579186,0.49593326381647546
418,0.9028295625942685,0.15724713242961416,0.9028295625942685,0.1814389989572471,0.9028295625942685,0.19353493222106358,0.9028295625942685,0.7015641293013555,0.9028295625942685,0.2903023983315954,0.9028295625942685,0.49593326381647546
419,0.9049894419306185,0.15724713242961416,0.9049894419306185,0.1814389989572471,0.9049894419306185,0.19353493222106358,0.9049894419306185,0.7015641293013555,0.9049894419306185,0.2903023983315954,0.9049894419306185,0.49593326381647546
420,0.9071493212669683,0.15724713242961416,0.9071493212669683,0.1814389989572471,0.9071493212669683,0.19353493222106358,0.9071493212669683,0.6894681960375391,0.9071493212669683,0.2903023983315954,0.9071493212669683,0.49593326381647546
421,0.9093092006033183,0.15724713242961416,0.9093092006033183,0.1814389989572471,0.9093092006033183,0.20563086548488005,0.9093092006033183,0.6894681960375391,0.9093092006033183,0.2903023983315954,0.9093092006033183,0.49593326381647546
422,0.9114690799396682,0.15724713242961416,0.9114690799396682,0.1814389989572471,0.9114690799396682,0.20563086548488005,0.9114690799396682,0.6773722627737225,0.9114690799396682,0.2903023983315954,0.9114690799396682,0.49593326381647546
423,0.9136289592760182,0.15724713242961416,0.9136289592760182,0.1814389989572471,0.9136289592760182,0.20563086548488005,0.9136289592760182,0.6773722627737225,0.9136289592760182,0.2903023983315954,0.9136289592760182,0.49593326381647546
424,0.915788838612368,0.15724713242961416,0.915788838612368,0.1814389989572471,0.915788838612368,0.20563086548488005,0.915788838612368,0.6773722627737225,0.915788838612368,0.2903023983315954,0.915788838612368,0.49593326381647546
425,0.917948717948718,0.15724713242961416,0.917948717948718,0.1814389989572471,0.917948717948718,0.21772679874869652,0.917948717948718,0.6652763295099061,0.917948717948718,0.2903023983315954,0.917948717948718,0.49593326381647546
426,0.9201085972850679,0.15724713242961416,0.9201085972850679,0.1814389989572471,0.9201085972850679,0.21772679874869652,0.9201085972850679,0.6773722627737225,0.9201085972850679,0.2903023983315954,0.9201085972850679,0.49593326381647546
427,0.9222684766214179,0.15724713242961416,0.9222684766214179,0.1814389989572471,0.9222684766214179,0.21772679874869652,0.9222684766214179,0.6894681960375391,0.9222684766214179,0.2903023983315954,0.9222684766214179,0.49593326381647546
428,0.9244283559577677,0.15724713242961416,0.9244283559577677,0.1814389989572471,0.9244283559577677,0.21772679874869652,0.9244283559577677,0.6894681960375391,0.9244283559577677,0.2903023983315954,0.9244283559577677,0.49593326381647546
429,0.9265882352941177,0.15724713242961416,0.9265882352941177,0.1814389989572471,0.9265882352941177,0.21772679874869652,0.9265882352941177,0.6894681960375391,0.9265882352941177,0.2903023983315954,0.9265882352941177,0.49593326381647546
430,0.9287481146304676,0.15724713242961416,0.9287481146304676,0.1814389989572471,0.9287481146304676,0.21772679874869652,0.9287481146304676,0.6894681960375391,0.9287481146304676,0.2903023983315954,0.9287481146304676,0.49593326381647546
431,0.9309079939668176,0.15724713242961416,0.9309079939668176,0.1814389989572471,0.9309079939668176,0.21772679874869652,0.9309079939668176,0.6894681960375391,0.9309079939668176,0.2903023983315954,0.9309079939668176,0.49593326381647546
432,0.9330678733031675,0.15724713242961416,0.9330678733031675,0.1814389989572471,0.9330678733031675,0.21772679874869652,0.9330678733031675,0.6894681960375391,0.9330678733031675,0.2903023983315954,0.9330678733031675,0.49593326381647546
433,0.9352277526395174,0.1451511991657977,0.9352277526395174,0.1814389989572471,0.9352277526395174,0.21772679874869652,0.9352277526395174,0.6894681960375391,0.9352277526395174,0.2782064650677789,0.9352277526395174,0.49593326381647546
434,0.9373876319758674,0.1451511991657977,0.9373876319758674,0.1814389989572471,0.9373876319758674,0.21772679874869652,0.9373876319758674,0.6894681960375391,0.9373876319758674,0.2782064650677789,0.9373876319758674,0.49593326381647546
435,0.9395475113122173,0.1451511991657977,0.9395475113122173,0.1814389989572471,0.9395475113122173,0.21772679874869652,0.9395475113122173,0.6894681960375391,0.9395475113122173,0.2782064650677789,0.9395475113122173,0.49593326381647546
436,0.9417073906485672,0.1451511991657977,0.9417073906485672,0.1814389989572471,0.9417073906485672,0.21772679874869652,0.9417073906485672,0.6894681960375391,0.9417073906485672,0.2782064650677789,0.9417073906485672,0.49593326381647546
437,0.9438672699849171,0.1451511991657977,0.9438672699849171,0.1814389989572471,0.9438672699849171,0.21772679874869652,0.9438672699849171,0.6894681960375391,0.9438672699849171,0.2782064650677789,0.9438672699849171,0.49593326381647546
438,0.9460271493212671,0.1451511991657977,0.9460271493212671,0.1814389989572471,0.9460271493212671,0.21772679874869652,0.9460271493212671,0.6894681960375391,0.9460271493212671,0.2782064650677789,0.9460271493212671,0.49593326381647546
439,0.948187028657617,0.1451511991657977,0.948187028657617,0.1814389989572471,0.948187028657617,0.21772679874869652,0.948187028657617,0.6894681960375391,0.948187028657617,0.2782064650677789,0.948187028657617,0.49593326381647546
440,0.9503469079939669,0.1451511991657977,0.9503469079939669,0.1814389989572471,0.9503469079939669,0.21772679874869652,0.9503469079939669,0.6894681960375391,0.9503469079939669,0.2782064650677789,0.9503469079939669,0.49593326381647546
441,0.9525067873303168,0.1451511991657977,0.9525067873303168,0.1814389989572471,0.9525067873303168,0.21772679874869652,0.9525067873303168,0.6894681960375391,0.9525067873303168,0.2782064650677789,0.9525067873303168,0.49593326381647546
442,0.9546666666666668,0.1451511991657977,0.9546666666666668,0.1814389989572471,0.9546666666666668,0.21772679874869652,0.9546666666666668,0.6894681960375391,0.9546666666666668,0.2782064650677789,0.9546666666666668,0.49593326381647546
443,0.9568265460030166,0.1451511991657977,0.9568265460030166,0.1814389989572471,0.9568265460030166,0.21772679874869652,0.9568265460030166,0.6894681960375391,0.9568265460030166,0.2782064650677789,0.9568265460030166,0.49593326381647546
444,0.9589864253393666,0.1451511991657977,0.9589864253393666,0.1814389989572471,0.9589864253393666,0.21772679874869652,0.9589864253393666,0.6894681960375391,0.9589864253393666,0.2782064650677789,0.9589864253393666,0.49593326381647546
445,0.9611463046757165,0.1451511991657977,0.9611463046757165,0.1814389989572471,0.9611463046757165,0.20563086548488005,0.9611463046757165,0.6894681960375391,0.9611463046757165,0.2782064650677789,0.9611463046757165,0.49593326381647546
446,0.9633061840120665,0.1451511991657977,0.9633061840120665,0.1814389989572471,0.9633061840120665,0.20563086548488005,0.9633061840120665,0.6773722627737225,0.9633061840120665,0.2782064650677789,0.9633061840120665,0.483837330552659
447,0.9654660633484163,0.1451511991657977,0.9654660633484163,0.1814389989572471,0.9654660633484163,0.20563086548488005,0.9654660633484163,0.6531803962460896,0.9654660633484163,0.2782064650677789,0.9654660633484163,0.483837330552659
448,0.9676259426847663,0.1451511991657977,0.9676259426847663,0.19353493222106358,0.9676259426847663,0.19353493222106358,0.9676259426847663,0.3749739311783107,0.9676259426847663,0.2782064650677789,0.9676259426847663,0.483837330552659
449,0.9697858220211162,0.1451511991657977,0.9697858220211162,0.19353493222106358,0.9697858220211162,0.19353493222106358,0.9697858220211162,0.35078206465067774,0.9697858220211162,0.2782064650677789,0.9697858220211162,0.483837330552659
450,0.9719457013574662,0.1451511991657977,0.9719457013574662,0.19353493222106358,0.9719457013574662,0.19353493222106358,0.9719457013574662,0.35078206465067774,0.9719457013574662,0.2782064650677789,0.9719457013574662,0.483837330552659
451,0.974105580693816,0.1451511991657977,0.974105580693816,0.19353493222106358,0.974105580693816,0.19353493222106358,0.974105580693816,0.3628779979144942,0.974105580693816,0.2782064650677789,0.974105580693816,0.483837330552659
452,0.976265460030166,0.1451511991657977,0.976265460030166,0.19353493222106358,0.976265460030166,0.19353493222106358,0.976265460030166,0.3991657977059436,0.976265460030166,0.2782064650677789,0.976265460030166,0.483837330552659
453,0.9784253393665159,0.1451511991657977,0.9784253393665159,0.19353493222106358,0.9784253393665159,0.20563086548488005,0.9784253393665159,0.5564129301355578,0.9784253393665159,0.2782064650677789,0.9784253393665159,0.483837330552659
454,0.9805852187028659,0.1451511991657977,0.9805852187028659,0.19353493222106358,0.9805852187028659,0.20563086548488005,0.9805852187028659,0.6047966631908237,0.9805852187028659,0.2782064650677789,0.9805852187028659,0.47174139728884246
455,0.9827450980392157,0.1451511991657977,0.9827450980392157,0.19353493222106358,0.9827450980392157,0.20563086548488005,0.9827450980392157,0.6168925964546401,0.9827450980392157,0.2782064650677789,0.9827450980392157,0.47174139728884246
456,0.9849049773755657,0.1451511991657977,0.9849049773755657,0.19353493222106358,0.9849049773755657,0.20563086548488005,0.9849049773755657,0.6168925964546401,0.9849049773755657,0.2782064650677789,0.9849049773755657,0.459645464025026
457,0.9870648567119156,0.1451511991657977,0.9870648567119156,0.19353493222106358,0.9870648567119156,0.20563086548488005,0.9870648567119156,0.6168925964546401,0.9870648567119156,0.2782064650677789,0.9870648567119156,0.47174139728884246
458,0.9892247360482656,0.13305526590198122,0.9892247360482656,0.19353493222106358,0.9892247360482656,0.20563086548488005,0.9892247360482656,0.6289885297184566,0.9892247360482656,0.2782064650677789,0.9892247360482656,0.483837330552659
459,0.9913846153846154,0.1451511991657977,0.9913846153846154,0.19353493222106358,0.9913846153846154,0.20563086548488005,0.9913846153846154,0.6289885297184566,0.9913846153846154,0.2782064650677789,0.9913846153846154,0.483837330552659
460,0.9935444947209654,0.1451511991657977,0.9935444947209654,0.19353493222106358,0.9935444947209654,0.20563086548488005,0.9935444947209654,0.6410844629822731,0.9935444947209654,0.2782064650677789,0.9935444947209654,0.49593326381647546
461,0.9957043740573153,0.1451511991657977,0.9957043740573153,0.19353493222106358,0.9957043740573153,0.20563086548488005,0.9957043740573153,0.6410844629822731,0.9957043740573153,0.2782064650677789,0.9957043740573153,0.49593326381647546
462,0.9978642533936652,0.1451511991657977,0.9978642533936652,0.19353493222106358,0.9978642533936652,0.20563086548488005,0.9978642533936652,0.6410844629822731,0.9978642533936652,0.2782064650677789,0.9978642533936652,0.5080291970802919
463,1.0000241327300152,0.15724713242961416,1.0000241327300152,0.19353493222106358,1.0000241327300152,0.20563086548488005,1.0000241327300152,0.6410844629822731,1.0000241327300152,0.2782064650677789,1.0000241327300152,0.5080291970802919
464,1.002184012066365,0.15724713242961416,1.002184012066365,0.19353493222106358,1.002184012066365,0.20563086548488005,1.002184012066365,0.6410844629822731,1.002184012066365,0.2782064650677789,1.002184012066365,0.5080291970802919
465,1.004343891402715,0.15724713242961416,1.004343891402715,0.19353493222106358,1.004343891402715,0.20563086548488005,1.004343891402715,0.6410844629822731,1.004343891402715,0.2782064650677789,1.004343891402715,0.5080291970802919
466,1.006503770739065,0.15724713242961416,1.006503770739065,0.19353493222106358,1.006503770739065,0.20563086548488005,1.006503770739065,0.6410844629822731,1.006503770739065,0.2782064650677789,1.006503770739065,0.5080291970802919
467,1.008663650075415,0.15724713242961416,1.008663650075415,0.19353493222106358,1.008663650075415,0.20563086548488005,1.008663650075415,0.6410844629822731,1.008663650075415,0.2782064650677789,1.008663650075415,0.5080291970802919
468,1.0108235294117647,0.15724713242961416,1.0108235294117647,0.19353493222106358,1.0108235294117647,0.20563086548488005,1.0108235294117647,0.6410844629822731,1.0108235294117647,0.2782064650677789,1.0108235294117647,0.5080291970802919
469,1.0129834087481147,0.15724713242961416,1.0129834087481147,0.19353493222106358,1.0129834087481147,0.20563086548488005,1.0129834087481147,0.6410844629822731,1.0129834087481147,0.2782064650677789,1.0129834087481147,0.5080291970802919
470,1.0151432880844646,0.15724713242961416,1.0151432880844646,0.19353493222106358,1.0151432880844646,0.20563086548488005,1.0151432880844646,0.6410844629822731,1.0151432880844646,0.2903023983315954,1.0151432880844646,0.5080291970802919
471,1.0173031674208146,0.15724713242961416,1.0173031674208146,0.19353493222106358,1.0173031674208146,0.20563086548488005,1.0173031674208146,0.6410844629822731,1.0173031674208146,0.2903023983315954,1.0173031674208146,0.5080291970802919
472,1.0194630467571644,0.15724713242961416,1.0194630467571644,0.19353493222106358,1.0194630467571644,0.20563086548488005,1.0194630467571644,0.6410844629822731,1.0194630467571644,0.2903023983315954,1.0194630467571644,0.5080291970802919
473,1.0216229260935143,0.15724713242961416,1.0216229260935143,0.19353493222106358,1.0216229260935143,0.20563086548488005,1.0216229260935143,0.6410844629822731,1.0216229260935143,0.2903023983315954,1.0216229260935143,0.5080291970802919
474,1.0237828054298643,0.15724713242961416,1.0237828054298643,0.19353493222106358,1.0237828054298643,0.20563086548488005,1.0237828054298643,0.6410844629822731,1.0237828054298643,0.2903023983315954,1.0237828054298643,0.5080291970802919
475,1.0259426847662143,0.15724713242961416,1.0259426847662143,0.19353493222106358,1.0259426847662143,0.20563086548488005,1.0259426847662143,0.6410844629822731,1.0259426847662143,0.2903023983315954,1.0259426847662143,0.5080291970802919
476,1.028102564102564,0.15724713242961416,1.028102564102564,0.19353493222106358,1.028102564102564,0.20563086548488005,1.028102564102564,0.6410844629822731,1.028102564102564,0.2903023983315954,1.028102564102564,0.5080291970802919
477,1.030262443438914,0.15724713242961416,1.030262443438914,0.19353493222106358,1.030262443438914,0.20563086548488005,1.030262443438914,0.6410844629822731,1.030262443438914,0.2903023983315954,1.030262443438914,0.5080291970802919
478,1.032422322775264,0.15724713242961416,1.032422322775264,0.19353493222106358,1.032422322775264,0.20563086548488005,1.032422322775264,0.6410844629822731,1.032422322775264,0.2903023983315954,1.032422322775264,0.5080291970802919
479,1.034582202111614,0.15724713242961416,1.034582202111614,0.19353493222106358,1.034582202111614,0.20563086548488005,1.034582202111614,0.6410844629822731,1.034582202111614,0.2903023983315954,1.034582202111614,0.5080291970802919
480,1.036742081447964,0.15724713242961416,1.036742081447964,0.19353493222106358,1.036742081447964,0.20563086548488005,1.036742081447964,0.6410844629822731,1.036742081447964,0.2903023983315954,1.036742081447964,0.5080291970802919
481,1.0389019607843137,0.15724713242961416,1.0389019607843137,0.19353493222106358,1.0389019607843137,0.20563086548488005,1.0389019607843137,0.6410844629822731,1.0389019607843137,0.2903023983315954,1.0389019607843137,0.5080291970802919
482,1.0410618401206637,0.15724713242961416,1.0410618401206637,0.19353493222106358,1.0410618401206637,0.20563086548488005,1.0410618401206637,0.6410844629822731,1.0410618401206637,0.2903023983315954,1.0410618401206637,0.5080291970802919
483,1.0432217194570137,0.15724713242961416,1.0432217194570137,0.19353493222106358,1.0432217194570137,0.20563086548488005,1.0432217194570137,0.6410844629822731,1.0432217194570137,0.2903023983315954,1.0432217194570137,0.5080291970802919
484,1.0453815987933637,0.15724713242961416,1.0453815987933637,0.19353493222106358,1.0453815987933637,0.20563086548488005,1.0453815987933637,0.6410844629822731,1.0453815987933637,0.2903023983315954,1.0453815987933637,0.5080291970802919
485,1.0475414781297134,0.15724713242961416,1.0475414781297134,0.19353493222106358,1.0475414781297134,0.20563086548488005,1.0475414781297134,0.6410844629822731,1.0475414781297134,0.2903023983315954,1.0475414781297134,0.5080291970802919
486,1.0497013574660634,0.15724713242961416,1.0497013574660634,0.19353493222106358,1.0497013574660634,0.20563086548488005,1.0497013574660634,0.6410844629822731,1.0497013574660634,0.2903023983315954,1.0497013574660634,0.5080291970802919
487,1.0518612368024134,0.15724713242961416,1.0518612368024134,0.19353493222106358,1.0518612368024134,0.20563086548488005,1.0518612368024134,0.6410844629822731,1.0518612368024134,0.2903023983315954,1.0518612368024134,0.5080291970802919
488,1.0540211161387634,0.15724713242961416,1.0540211161387634,0.19353493222106358,1.0540211161387634,0.20563086548488005,1.0540211161387634,0.6410844629822731,1.0540211161387634,0.2903023983315954,1.0540211161387634,0.5080291970802919
489,1.0561809954751131,0.15724713242961416,1.0561809954751131,0.19353493222106358,1.0561809954751131,0.20563086548488005,1.0561809954751131,0.6410844629822731,1.0561809954751131,0.2903023983315954,1.0561809954751131,0.5080291970802919
490,1.058340874811463,0.15724713242961416,1.058340874811463,0.19353493222106358,1.058340874811463,0.20563086548488005,1.058340874811463,0.6410844629822731,1.058340874811463,0.2903023983315954,1.058340874811463,0.5080291970802919
491,1.060500754147813,0.15724713242961416,1.060500754147813,0.19353493222106358,1.060500754147813,0.20563086548488005,1.060500754147813,0.6410844629822731,1.060500754147813,0.2903023983315954,1.060500754147813,0.5080291970802919
492,1.062660633484163,0.15724713242961416,1.062660633484163,0.19353493222106358,1.062660633484163,0.20563086548488005,1.062660633484163,0.6410844629822731,1.062660633484163,0.2903023983315954,1.062660633484163,0.5080291970802919
493,1.0648205128205128,0.15724713242961416,1.0648205128205128,0.19353493222106358,1.0648205128205128,0.20563086548488005,1.0648205128205128,0.6410844629822731,1.0648205128205128,0.2903023983315954,1.0648205128205128,0.5080291970802919
494,1.0669803921568628,0.15724713242961416,1.0669803921568628,0.19353493222106358,1.0669803921568628,0.20563086548488005,1.0669803921568628,0.6410844629822731,1.0669803921568628,0.2903023983315954,1.0669803921568628,0.5080291970802919
495,1.0691402714932128,0.15724713242961416,1.0691402714932128,0.19353493222106358,1.0691402714932128,0.20563086548488005,1.0691402714932128,0.6410844629822731,1.0691402714932128,0.2903023983315954,1.0691402714932128,0.5080291970802919
496,1.0713001508295628,0.15724713242961416,1.0713001508295628,0.19353493222106358,1.0713001508295628,0.20563086548488005,1.0713001508295628,0.6410844629822731,1.0713001508295628,0.2903023983315954,1.0713001508295628,0.5080291970802919
497,1.0734600301659125,0.15724713242961416,1.0734600301659125,0.19353493222106358,1.0734600301659125,0.20563086548488005,1.0734600301659125,0.6410844629822731,1.0734600301659125,0.2903023983315954,1.0734600301659125,0.5080291970802919
498,1.0756199095022625,0.15724713242961416,1.0756199095022625,0.19353493222106358,1.0756199095022625,0.20563086548488005,1.0756199095022625,0.6410844629822731,1.0756199095022625,0.2903023983315954,1.0756199095022625,0.5080291970802919
499,1.0777797888386125,0.1451511991657977,1.0777797888386125,0.19353493222106358,1.0777797888386125,0.20563086548488005,1.0777797888386125,0.6410844629822731,1.0777797888386125,0.2903023983315954,1.0777797888386125,0.49593326381647546
500,1.0799396681749625,0.1451511991657977,1.0799396681749625,0.19353493222106358,1.0799396681749625,0.20563086548488005,1.0799396681749625,0.6410844629822731,1.0799396681749625,0.2903023983315954,1.0799396681749625,0.49593326381647546
501,1.0820995475113122,0.1451511991657977,1.0820995475113122,0.19353493222106358,1.0820995475113122,0.20563086548488005,1.0820995475113122,0.6410844629822731,1.0820995475113122,0.2903023983315954,1.0820995475113122,0.483837330552659
502,1.0842594268476622,0.1451511991657977,1.0842594268476622,0.1814389989572471,1.0842594268476622,0.19353493222106358,1.0842594268476622,0.6410844629822731,1.0842594268476622,0.2903023983315954,1.0842594268476622,0.483837330552659
503,1.0864193061840122,0.1451511991657977,1.0864193061840122,0.19353493222106358,1.0864193061840122,0.19353493222106358,1.0864193061840122,0.6410844629822731,1.0864193061840122,0.2903023983315954,1.0864193061840122,0.483837330552659
504,1.0885791855203621,0.1451511991657977,1.0885791855203621,0.19353493222106358,1.0885791855203621,0.19353493222106358,1.0885791855203621,0.6289885297184566,1.0885791855203621,0.2903023983315954,1.0885791855203621,0.483837330552659
505,1.090739064856712,0.1451511991657977,1.090739064856712,0.19353493222106358,1.090739064856712,0.19353493222106358,1.090739064856712,0.6289885297184566,1.090739064856712,0.2903023983315954,1.090739064856712,0.483837330552659
506,1.0928989441930619,0.1451511991657977,1.0928989441930619,0.19353493222106358,1.0928989441930619,0.19353493222106358,1.0928989441930619,0.6289885297184566,1.0928989441930619,0.2903023983315954,1.0928989441930619,0.483837330552659
507,1.0950588235294119,0.1451511991657977,1.0950588235294119,0.19353493222106358,1.0950588235294119,0.20563086548488005,1.0950588235294119,0.6289885297184566,1.0950588235294119,0.2903023983315954,1.0950588235294119,0.483837330552659
