,x_val,y_val,x_val,y_val,x_val,y_val,x_val,y_val,x_val,y_val,x_val,y_val,x_val,y_val,x_val,y_val,x_val,y_val,x_val,y_val,x_val,y_val,x_val,y_val,x_val,y_val,x_val,y_val
0,0.0,0.30043072505384066,0.0,0.5207465900933238,0.0,0.10014357501794688,0.0,0.30043072505384066,0.0,0.5407753050969132,0.0,0.36051687006460875
1,0.004355369428656895,0.2804020100502513,0.004355369428656895,0.5207465900933238,0.004355369428656895,0.10014357501794688,0.004355369428656895,0.18025843503230438,0.004355369428656895,0.5407753050969132,0.004355369428656895,0.34048815506101937
2,0.00871073885731379,0.2603732950466619,0.00871073885731379,0.5007178750897344,0.00871073885731379,0.10014357501794688,0.00871073885731379,0.10014357501794688,0.00871073885731379,0.5407753050969132,0.00871073885731379,0.34048815506101937
3,0.013066108285970685,0.24034458004307252,0.013066108285970685,0.48068916008614504,0.013066108285970685,0.10014357501794688,0.013066108285970685,0.06008614501076813,0.013066108285970685,0.5407753050969132,0.013066108285970685,0.32045944005743
4,0.01742147771462758,0.22031586503948314,0.01742147771462758,0.46066044508255566,0.01742147771462758,0.0801148600143575,0.01742147771462758,0.04005743000717875,0.01742147771462758,0.5407753050969132,0.01742147771462758,0.32045944005743
5,0.021776847143284477,0.22031586503948314,0.021776847143284477,0.4206030150753769,0.021776847143284477,0.0801148600143575,0.021776847143284477,0.020028715003589374,0.021776847143284477,0.5407753050969132,0.021776847143284477,0.32045944005743
6,0.02613221657194137,0.20028715003589376,0.02613221657194137,0.4005743000717875,0.02613221657194137,0.06008614501076813,0.02613221657194137,0.04005743000717875,0.02613221657194137,0.5407753050969132,0.02613221657194137,0.32045944005743
7,0.030487586000598265,0.18025843503230438,0.030487586000598265,0.38054558506819813,0.030487586000598265,0.06008614501076813,0.030487586000598265,0.06008614501076813,0.030487586000598265,0.5407753050969132,0.030487586000598265,0.32045944005743
8,0.03484295542925516,0.18025843503230438,0.03484295542925516,0.38054558506819813,0.03484295542925516,0.06008614501076813,0.03484295542925516,0.0801148600143575,0.03484295542925516,0.5407753050969132,0.03484295542925516,0.32045944005743
9,0.039198324857912054,0.18025843503230438,0.039198324857912054,0.36051687006460875,0.039198324857912054,0.06008614501076813,0.039198324857912054,0.10014357501794688,0.039198324857912054,0.5407753050969132,0.039198324857912054,0.32045944005743
10,0.04355369428656895,0.18025843503230438,0.04355369428656895,0.36051687006460875,0.04355369428656895,0.06008614501076813,0.04355369428656895,0.10014357501794688,0.04355369428656895,0.5407753050969132,0.04355369428656895,0.32045944005743
11,0.047909063715225846,0.160229720028715,0.047909063715225846,0.34048815506101937,0.047909063715225846,0.0801148600143575,0.047909063715225846,0.12017229002153626,0.047909063715225846,0.5407753050969132,0.047909063715225846,0.32045944005743
12,0.05226443314388274,0.160229720028715,0.05226443314388274,0.34048815506101937,0.05226443314388274,0.0801148600143575,0.05226443314388274,0.14020100502512564,0.05226443314388274,0.5407753050969132,0.05226443314388274,0.32045944005743
13,0.05661980257253964,0.160229720028715,0.05661980257253964,0.34048815506101937,0.05661980257253964,0.10014357501794688,0.05661980257253964,0.14020100502512564,0.05661980257253964,0.5407753050969132,0.05661980257253964,0.32045944005743
14,0.06097517200119653,0.160229720028715,0.06097517200119653,0.32045944005743,0.06097517200119653,0.10014357501794688,0.06097517200119653,0.160229720028715,0.06097517200119653,0.5207465900933238,0.06097517200119653,0.32045944005743
15,0.06533054142985342,0.160229720028715,0.06533054142985342,0.32045944005743,0.06533054142985342,0.12017229002153626,0.06533054142985342,0.160229720028715,0.06533054142985342,0.5207465900933238,0.06533054142985342,0.32045944005743
16,0.06968591085851032,0.160229720028715,0.06968591085851032,0.30043072505384066,0.06968591085851032,0.12017229002153626,0.06968591085851032,0.160229720028715,0.06968591085851032,0.5007178750897344,0.06968591085851032,0.32045944005743
17,0.07404128028716722,0.160229720028715,0.07404128028716722,0.30043072505384066,0.07404128028716722,0.14020100502512564,0.07404128028716722,0.160229720028715,0.07404128028716722,0.48068916008614504,0.07404128028716722,0.32045944005743
18,0.07839664971582411,0.14020100502512564,0.07839664971582411,0.30043072505384066,0.07839664971582411,0.14020100502512564,0.07839664971582411,0.160229720028715,0.07839664971582411,0.48068916008614504,0.07839664971582411,0.32045944005743
19,0.082752019144481,0.14020100502512564,0.082752019144481,0.30043072505384066,0.082752019144481,0.160229720028715,0.082752019144481,0.160229720028715,0.082752019144481,0.46066044508255566,0.082752019144481,0.32045944005743
20,0.0871073885731379,0.14020100502512564,0.0871073885731379,0.30043072505384066,0.0871073885731379,0.18025843503230438,0.0871073885731379,0.160229720028715,0.0871073885731379,0.4406317300789663,0.0871073885731379,0.32045944005743
21,0.09146275800179479,0.14020100502512564,0.09146275800179479,0.2804020100502513,0.09146275800179479,0.18025843503230438,0.09146275800179479,0.160229720028715,0.09146275800179479,0.4406317300789663,0.09146275800179479,0.32045944005743
22,0.09581812743045169,0.14020100502512564,0.09581812743045169,0.2804020100502513,0.09581812743045169,0.18025843503230438,0.09581812743045169,0.160229720028715,0.09581812743045169,0.4206030150753769,0.09581812743045169,0.32045944005743
23,0.10017349685910859,0.14020100502512564,0.10017349685910859,0.2804020100502513,0.10017349685910859,0.20028715003589376,0.10017349685910859,0.160229720028715,0.10017349685910859,0.4005743000717875,0.10017349685910859,0.32045944005743
24,0.10452886628776548,0.14020100502512564,0.10452886628776548,0.2804020100502513,0.10452886628776548,0.20028715003589376,0.10452886628776548,0.160229720028715,0.10452886628776548,0.38054558506819813,0.10452886628776548,0.30043072505384066
25,0.10888423571642238,0.14020100502512564,0.10888423571642238,0.2804020100502513,0.10888423571642238,0.22031586503948314,0.10888423571642238,0.160229720028715,0.10888423571642238,0.36051687006460875,0.10888423571642238,0.30043072505384066
26,0.11323960514507928,0.12017229002153626,0.11323960514507928,0.2804020100502513,0.11323960514507928,0.22031586503948314,0.11323960514507928,0.160229720028715,0.11323960514507928,0.36051687006460875,0.11323960514507928,0.30043072505384066
27,0.11759497457373616,0.12017229002153626,0.11759497457373616,0.2603732950466619,0.11759497457373616,0.22031586503948314,0.11759497457373616,0.160229720028715,0.11759497457373616,0.34048815506101937,0.11759497457373616,0.30043072505384066
28,0.12195034400239306,0.12017229002153626,0.12195034400239306,0.2603732950466619,0.12195034400239306,0.22031586503948314,0.12195034400239306,0.160229720028715,0.12195034400239306,0.32045944005743,0.12195034400239306,0.2804020100502513
29,0.12630571343104996,0.10014357501794688,0.12630571343104996,0.2603732950466619,0.12630571343104996,0.22031586503948314,0.12630571343104996,0.160229720028715,0.12630571343104996,0.32045944005743,0.12630571343104996,0.2804020100502513
30,0.13066108285970685,0.10014357501794688,0.13066108285970685,0.2603732950466619,0.13066108285970685,0.22031586503948314,0.13066108285970685,0.160229720028715,0.13066108285970685,0.30043072505384066,0.13066108285970685,0.2804020100502513
31,0.13501645228836376,0.10014357501794688,0.13501645228836376,0.2603732950466619,0.13501645228836376,0.22031586503948314,0.13501645228836376,0.160229720028715,0.13501645228836376,0.30043072505384066,0.13501645228836376,0.2804020100502513
32,0.13937182171702064,0.10014357501794688,0.13937182171702064,0.24034458004307252,0.13937182171702064,0.24034458004307252,0.13937182171702064,0.160229720028715,0.13937182171702064,0.2804020100502513,0.13937182171702064,0.2804020100502513
33,0.14372719114567753,0.10014357501794688,0.14372719114567753,0.24034458004307252,0.14372719114567753,0.24034458004307252,0.14372719114567753,0.160229720028715,0.14372719114567753,0.2804020100502513,0.14372719114567753,0.2603732950466619
34,0.14808256057433444,0.10014357501794688,0.14808256057433444,0.24034458004307252,0.14808256057433444,0.24034458004307252,0.14808256057433444,0.160229720028715,0.14808256057433444,0.2603732950466619,0.14808256057433444,0.2603732950466619
35,0.15243793000299133,0.10014357501794688,0.15243793000299133,0.24034458004307252,0.15243793000299133,0.24034458004307252,0.15243793000299133,0.160229720028715,0.15243793000299133,0.2603732950466619,0.15243793000299133,0.24034458004307252
36,0.15679329943164821,0.10014357501794688,0.15679329943164821,0.24034458004307252,0.15679329943164821,0.2603732950466619,0.15679329943164821,0.160229720028715,0.15679329943164821,0.2603732950466619,0.15679329943164821,0.24034458004307252
37,0.16114866886030513,0.10014357501794688,0.16114866886030513,0.24034458004307252,0.16114866886030513,0.2603732950466619,0.16114866886030513,0.160229720028715,0.16114866886030513,0.2603732950466619,0.16114866886030513,0.24034458004307252
38,0.165504038288962,0.10014357501794688,0.165504038288962,0.24034458004307252,0.165504038288962,0.2603732950466619,0.165504038288962,0.160229720028715,0.165504038288962,0.24034458004307252,0.165504038288962,0.22031586503948314
39,0.1698594077176189,0.10014357501794688,0.1698594077176189,0.24034458004307252,0.1698594077176189,0.2804020100502513,0.1698594077176189,0.160229720028715,0.1698594077176189,0.24034458004307252,0.1698594077176189,0.22031586503948314
40,0.1742147771462758,0.10014357501794688,0.1742147771462758,0.22031586503948314,0.1742147771462758,0.2804020100502513,0.1742147771462758,0.18025843503230438,0.1742147771462758,0.24034458004307252,0.1742147771462758,0.22031586503948314
41,0.1785701465749327,0.10014357501794688,0.1785701465749327,0.22031586503948314,0.1785701465749327,0.2804020100502513,0.1785701465749327,0.18025843503230438,0.1785701465749327,0.24034458004307252,0.1785701465749327,0.20028715003589376
42,0.18292551600358958,0.10014357501794688,0.18292551600358958,0.22031586503948314,0.18292551600358958,0.2804020100502513,0.18292551600358958,0.18025843503230438,0.18292551600358958,0.24034458004307252,0.18292551600358958,0.20028715003589376
43,0.1872808854322465,0.10014357501794688,0.1872808854322465,0.22031586503948314,0.1872808854322465,0.2804020100502513,0.1872808854322465,0.18025843503230438,0.1872808854322465,0.24034458004307252,0.1872808854322465,0.18025843503230438
44,0.19163625486090338,0.10014357501794688,0.19163625486090338,0.22031586503948314,0.19163625486090338,0.2804020100502513,0.19163625486090338,0.18025843503230438,0.19163625486090338,0.24034458004307252,0.19163625486090338,0.18025843503230438
45,0.19599162428956027,0.10014357501794688,0.19599162428956027,0.22031586503948314,0.19599162428956027,0.2804020100502513,0.19599162428956027,0.18025843503230438,0.19599162428956027,0.24034458004307252,0.19599162428956027,0.18025843503230438
46,0.20034699371821718,0.10014357501794688,0.20034699371821718,0.22031586503948314,0.20034699371821718,0.2804020100502513,0.20034699371821718,0.18025843503230438,0.20034699371821718,0.24034458004307252,0.20034699371821718,0.160229720028715
47,0.20470236314687407,0.10014357501794688,0.20470236314687407,0.22031586503948314,0.20470236314687407,0.30043072505384066,0.20470236314687407,0.18025843503230438,0.20470236314687407,0.24034458004307252,0.20470236314687407,0.160229720028715
48,0.20905773257553095,0.10014357501794688,0.20905773257553095,0.22031586503948314,0.20905773257553095,0.30043072505384066,0.20905773257553095,0.18025843503230438,0.20905773257553095,0.24034458004307252,0.20905773257553095,0.160229720028715
49,0.21341310200418787,0.10014357501794688,0.21341310200418787,0.22031586503948314,0.21341310200418787,0.30043072505384066,0.21341310200418787,0.18025843503230438,0.21341310200418787,0.24034458004307252,0.21341310200418787,0.160229720028715
50,0.21776847143284475,0.10014357501794688,0.21776847143284475,0.22031586503948314,0.21776847143284475,0.30043072505384066,0.21776847143284475,0.18025843503230438,0.21776847143284475,0.24034458004307252,0.21776847143284475,0.14020100502512564
51,0.22212384086150164,0.10014357501794688,0.22212384086150164,0.22031586503948314,0.22212384086150164,0.32045944005743,0.22212384086150164,0.18025843503230438,0.22212384086150164,0.24034458004307252,0.22212384086150164,0.14020100502512564
52,0.22647921029015855,0.10014357501794688,0.22647921029015855,0.22031586503948314,0.22647921029015855,0.32045944005743,0.22647921029015855,0.18025843503230438,0.22647921029015855,0.24034458004307252,0.22647921029015855,0.14020100502512564
53,0.23083457971881544,0.10014357501794688,0.23083457971881544,0.22031586503948314,0.23083457971881544,0.32045944005743,0.23083457971881544,0.18025843503230438,0.23083457971881544,0.24034458004307252,0.23083457971881544,0.14020100502512564
54,0.23518994914747232,0.10014357501794688,0.23518994914747232,0.22031586503948314,0.23518994914747232,0.34048815506101937,0.23518994914747232,0.18025843503230438,0.23518994914747232,0.24034458004307252,0.23518994914747232,0.14020100502512564
55,0.23954531857612923,0.10014357501794688,0.23954531857612923,0.22031586503948314,0.23954531857612923,0.36051687006460875,0.23954531857612923,0.18025843503230438,0.23954531857612923,0.22031586503948314,0.23954531857612923,0.12017229002153626
56,0.24390068800478612,0.10014357501794688,0.24390068800478612,0.22031586503948314,0.24390068800478612,0.36051687006460875,0.24390068800478612,0.18025843503230438,0.24390068800478612,0.22031586503948314,0.24390068800478612,0.12017229002153626
57,0.248256057433443,0.10014357501794688,0.248256057433443,0.22031586503948314,0.248256057433443,0.38054558506819813,0.248256057433443,0.18025843503230438,0.248256057433443,0.22031586503948314,0.248256057433443,0.10014357501794688
58,0.2526114268620999,0.10014357501794688,0.2526114268620999,0.22031586503948314,0.2526114268620999,0.38054558506819813,0.2526114268620999,0.20028715003589376,0.2526114268620999,0.20028715003589376,0.2526114268620999,0.10014357501794688
59,0.2569667962907568,0.10014357501794688,0.2569667962907568,0.22031586503948314,0.2569667962907568,0.4005743000717875,0.2569667962907568,0.20028715003589376,0.2569667962907568,0.20028715003589376,0.2569667962907568,0.0801148600143575
60,0.2613221657194137,0.10014357501794688,0.2613221657194137,0.22031586503948314,0.2613221657194137,0.4005743000717875,0.2613221657194137,0.22031586503948314,0.2613221657194137,0.20028715003589376,0.2613221657194137,0.06008614501076813
61,0.2656775351480706,0.10014357501794688,0.2656775351480706,0.22031586503948314,0.2656775351480706,0.4005743000717875,0.2656775351480706,0.22031586503948314,0.2656775351480706,0.20028715003589376,0.2656775351480706,0.06008614501076813
62,0.2700329045767275,0.10014357501794688,0.2700329045767275,0.24034458004307252,0.2700329045767275,0.4206030150753769,0.2700329045767275,0.24034458004307252,0.2700329045767275,0.18025843503230438,0.2700329045767275,0.04005743000717875
63,0.2743882740053844,0.10014357501794688,0.2743882740053844,0.24034458004307252,0.2743882740053844,0.4206030150753769,0.2743882740053844,0.24034458004307252,0.2743882740053844,0.18025843503230438,0.2743882740053844,0.04005743000717875
64,0.2787436434340413,0.10014357501794688,0.2787436434340413,0.24034458004307252,0.2787436434340413,0.4206030150753769,0.2787436434340413,0.24034458004307252,0.2787436434340413,0.20028715003589376,0.2787436434340413,0.04005743000717875
65,0.2830990128626982,0.10014357501794688,0.2830990128626982,0.24034458004307252,0.2830990128626982,0.4406317300789663,0.2830990128626982,0.24034458004307252,0.2830990128626982,0.20028715003589376,0.2830990128626982,0.020028715003589374
66,0.28745438229135506,0.10014357501794688,0.28745438229135506,0.24034458004307252,0.28745438229135506,0.4406317300789663,0.28745438229135506,0.24034458004307252,0.28745438229135506,0.20028715003589376,0.28745438229135506,0.04005743000717875
67,0.29180975172001195,0.12017229002153626,0.29180975172001195,0.24034458004307252,0.29180975172001195,0.4406317300789663,0.29180975172001195,0.24034458004307252,0.29180975172001195,0.20028715003589376,0.29180975172001195,0.04005743000717875
68,0.2961651211486689,0.12017229002153626,0.2961651211486689,0.24034458004307252,0.2961651211486689,0.4406317300789663,0.2961651211486689,0.24034458004307252,0.2961651211486689,0.20028715003589376,0.2961651211486689,0.06008614501076813
69,0.30052049057732577,0.12017229002153626,0.30052049057732577,0.24034458004307252,0.30052049057732577,0.4406317300789663,0.30052049057732577,0.24034458004307252,0.30052049057732577,0.22031586503948314,0.30052049057732577,0.10014357501794688
70,0.30487586000598266,0.12017229002153626,0.30487586000598266,0.24034458004307252,0.30487586000598266,0.4406317300789663,0.30487586000598266,0.24034458004307252,0.30487586000598266,0.22031586503948314,0.30487586000598266,0.14020100502512564
71,0.30923122943463954,0.12017229002153626,0.30923122943463954,0.24034458004307252,0.30923122943463954,0.4406317300789663,0.30923122943463954,0.24034458004307252,0.30923122943463954,0.24034458004307252,0.30923122943463954,0.18025843503230438
72,0.31358659886329643,0.12017229002153626,0.31358659886329643,0.24034458004307252,0.31358659886329643,0.4406317300789663,0.31358659886329643,0.24034458004307252,0.31358659886329643,0.24034458004307252,0.31358659886329643,0.20028715003589376
73,0.3179419682919533,0.12017229002153626,0.3179419682919533,0.24034458004307252,0.3179419682919533,0.4406317300789663,0.3179419682919533,0.24034458004307252,0.3179419682919533,0.24034458004307252,0.3179419682919533,0.22031586503948314
74,0.32229733772061026,0.12017229002153626,0.32229733772061026,0.24034458004307252,0.32229733772061026,0.4406317300789663,0.32229733772061026,0.24034458004307252,0.32229733772061026,0.24034458004307252,0.32229733772061026,0.22031586503948314
75,0.32665270714926714,0.12017229002153626,0.32665270714926714,0.24034458004307252,0.32665270714926714,0.4406317300789663,0.32665270714926714,0.24034458004307252,0.32665270714926714,0.24034458004307252,0.32665270714926714,0.24034458004307252
76,0.331008076577924,0.12017229002153626,0.331008076577924,0.24034458004307252,0.331008076577924,0.4406317300789663,0.331008076577924,0.24034458004307252,0.331008076577924,0.24034458004307252,0.331008076577924,0.24034458004307252
77,0.3353634460065809,0.12017229002153626,0.3353634460065809,0.24034458004307252,0.3353634460065809,0.4406317300789663,0.3353634460065809,0.24034458004307252,0.3353634460065809,0.24034458004307252,0.3353634460065809,0.24034458004307252
78,0.3397188154352378,0.12017229002153626,0.3397188154352378,0.24034458004307252,0.3397188154352378,0.4406317300789663,0.3397188154352378,0.24034458004307252,0.3397188154352378,0.24034458004307252,0.3397188154352378,0.24034458004307252
79,0.3440741848638947,0.12017229002153626,0.3440741848638947,0.24034458004307252,0.3440741848638947,0.4406317300789663,0.3440741848638947,0.24034458004307252,0.3440741848638947,0.24034458004307252,0.3440741848638947,0.2603732950466619
80,0.3484295542925516,0.12017229002153626,0.3484295542925516,0.24034458004307252,0.3484295542925516,0.4406317300789663,0.3484295542925516,0.24034458004307252,0.3484295542925516,0.24034458004307252,0.3484295542925516,0.2603732950466619
81,0.3527849237212085,0.12017229002153626,0.3527849237212085,0.24034458004307252,0.3527849237212085,0.4406317300789663,0.3527849237212085,0.24034458004307252,0.3527849237212085,0.24034458004307252,0.3527849237212085,0.2603732950466619
82,0.3571402931498654,0.12017229002153626,0.3571402931498654,0.24034458004307252,0.3571402931498654,0.4406317300789663,0.3571402931498654,0.24034458004307252,0.3571402931498654,0.24034458004307252,0.3571402931498654,0.2603732950466619
83,0.3614956625785223,0.12017229002153626,0.3614956625785223,0.22031586503948314,0.3614956625785223,0.4406317300789663,0.3614956625785223,0.24034458004307252,0.3614956625785223,0.24034458004307252,0.3614956625785223,0.2603732950466619
84,0.36585103200717917,0.12017229002153626,0.36585103200717917,0.22031586503948314,0.36585103200717917,0.4406317300789663,0.36585103200717917,0.24034458004307252,0.36585103200717917,0.24034458004307252,0.36585103200717917,0.2804020100502513
85,0.37020640143583605,0.12017229002153626,0.37020640143583605,0.22031586503948314,0.37020640143583605,0.4406317300789663,0.37020640143583605,0.24034458004307252,0.37020640143583605,0.24034458004307252,0.37020640143583605,0.2804020100502513
86,0.374561770864493,0.12017229002153626,0.374561770864493,0.22031586503948314,0.374561770864493,0.4206030150753769,0.374561770864493,0.24034458004307252,0.374561770864493,0.24034458004307252,0.374561770864493,0.2804020100502513
87,0.3789171402931499,0.12017229002153626,0.3789171402931499,0.22031586503948314,0.3789171402931499,0.4206030150753769,0.3789171402931499,0.24034458004307252,0.3789171402931499,0.24034458004307252,0.3789171402931499,0.2804020100502513
88,0.38327250972180676,0.12017229002153626,0.38327250972180676,0.20028715003589376,0.38327250972180676,0.4005743000717875,0.38327250972180676,0.2603732950466619,0.38327250972180676,0.24034458004307252,0.38327250972180676,0.2804020100502513
89,0.38762787915046365,0.12017229002153626,0.38762787915046365,0.20028715003589376,0.38762787915046365,0.4005743000717875,0.38762787915046365,0.2603732950466619,0.38762787915046365,0.24034458004307252,0.38762787915046365,0.30043072505384066
90,0.39198324857912054,0.12017229002153626,0.39198324857912054,0.20028715003589376,0.39198324857912054,0.38054558506819813,0.39198324857912054,0.2603732950466619,0.39198324857912054,0.22031586503948314,0.39198324857912054,0.30043072505384066
91,0.3963386180077774,0.12017229002153626,0.3963386180077774,0.20028715003589376,0.3963386180077774,0.38054558506819813,0.3963386180077774,0.2804020100502513,0.3963386180077774,0.22031586503948314,0.3963386180077774,0.30043072505384066
92,0.40069398743643436,0.12017229002153626,0.40069398743643436,0.20028715003589376,0.40069398743643436,0.38054558506819813,0.40069398743643436,0.2804020100502513,0.40069398743643436,0.22031586503948314,0.40069398743643436,0.30043072505384066
93,0.40504935686509125,0.12017229002153626,0.40504935686509125,0.20028715003589376,0.40504935686509125,0.36051687006460875,0.40504935686509125,0.2804020100502513,0.40504935686509125,0.22031586503948314,0.40504935686509125,0.30043072505384066
94,0.40940472629374813,0.12017229002153626,0.40940472629374813,0.20028715003589376,0.40940472629374813,0.36051687006460875,0.40940472629374813,0.30043072505384066,0.40940472629374813,0.22031586503948314,0.40940472629374813,0.30043072505384066
95,0.413760095722405,0.12017229002153626,0.413760095722405,0.20028715003589376,0.413760095722405,0.34048815506101937,0.413760095722405,0.30043072505384066,0.413760095722405,0.22031586503948314,0.413760095722405,0.30043072505384066
96,0.4181154651510619,0.12017229002153626,0.4181154651510619,0.20028715003589376,0.4181154651510619,0.34048815506101937,0.4181154651510619,0.32045944005743,0.4181154651510619,0.20028715003589376,0.4181154651510619,0.30043072505384066
97,0.4224708345797188,0.12017229002153626,0.4224708345797188,0.20028715003589376,0.4224708345797188,0.32045944005743,0.4224708345797188,0.32045944005743,0.4224708345797188,0.20028715003589376,0.4224708345797188,0.30043072505384066
98,0.42682620400837573,0.12017229002153626,0.42682620400837573,0.20028715003589376,0.42682620400837573,0.32045944005743,0.42682620400837573,0.34048815506101937,0.42682620400837573,0.20028715003589376,0.42682620400837573,0.30043072505384066
99,0.4311815734370326,0.12017229002153626,0.4311815734370326,0.20028715003589376,0.4311815734370326,0.30043072505384066,0.4311815734370326,0.34048815506101937,0.4311815734370326,0.20028715003589376,0.4311815734370326,0.30043072505384066
100,0.4355369428656895,0.12017229002153626,0.4355369428656895,0.20028715003589376,0.4355369428656895,0.2804020100502513,0.4355369428656895,0.36051687006460875,0.4355369428656895,0.20028715003589376,0.4355369428656895,0.30043072505384066
101,0.4398923122943464,0.12017229002153626,0.4398923122943464,0.20028715003589376,0.4398923122943464,0.2804020100502513,0.4398923122943464,0.38054558506819813,0.4398923122943464,0.20028715003589376,0.4398923122943464,0.30043072505384066
102,0.4442476817230033,0.12017229002153626,0.4442476817230033,0.20028715003589376,0.4442476817230033,0.2603732950466619,0.4442476817230033,0.38054558506819813,0.4442476817230033,0.20028715003589376,0.4442476817230033,0.30043072505384066
103,0.4486030511516602,0.12017229002153626,0.4486030511516602,0.20028715003589376,0.4486030511516602,0.2603732950466619,0.4486030511516602,0.4005743000717875,0.4486030511516602,0.20028715003589376,0.4486030511516602,0.30043072505384066
104,0.4529584205803171,0.12017229002153626,0.4529584205803171,0.20028715003589376,0.4529584205803171,0.24034458004307252,0.4529584205803171,0.4206030150753769,0.4529584205803171,0.20028715003589376,0.4529584205803171,0.30043072505384066
105,0.457313790008974,0.12017229002153626,0.457313790008974,0.22031586503948314,0.457313790008974,0.22031586503948314,0.457313790008974,0.4406317300789663,0.457313790008974,0.22031586503948314,0.457313790008974,0.30043072505384066
106,0.46166915943763087,0.12017229002153626,0.46166915943763087,0.22031586503948314,0.46166915943763087,0.22031586503948314,0.46166915943763087,0.4406317300789663,0.46166915943763087,0.22031586503948314,0.46166915943763087,0.30043072505384066
107,0.46602452886628776,0.12017229002153626,0.46602452886628776,0.22031586503948314,0.46602452886628776,0.20028715003589376,0.46602452886628776,0.46066044508255566,0.46602452886628776,0.22031586503948314,0.46602452886628776,0.30043072505384066
108,0.47037989829494464,0.12017229002153626,0.47037989829494464,0.22031586503948314,0.47037989829494464,0.20028715003589376,0.47037989829494464,0.46066044508255566,0.47037989829494464,0.22031586503948314,0.47037989829494464,0.30043072505384066
109,0.4747352677236016,0.12017229002153626,0.4747352677236016,0.22031586503948314,0.4747352677236016,0.20028715003589376,0.4747352677236016,0.46066044508255566,0.4747352677236016,0.22031586503948314,0.4747352677236016,0.2804020100502513
110,0.47909063715225847,0.12017229002153626,0.47909063715225847,0.22031586503948314,0.47909063715225847,0.18025843503230438,0.47909063715225847,0.46066044508255566,0.47909063715225847,0.24034458004307252,0.47909063715225847,0.2804020100502513
111,0.48344600658091536,0.12017229002153626,0.48344600658091536,0.24034458004307252,0.48344600658091536,0.18025843503230438,0.48344600658091536,0.46066044508255566,0.48344600658091536,0.24034458004307252,0.48344600658091536,0.2804020100502513
112,0.48780137600957224,0.10014357501794688,0.48780137600957224,0.24034458004307252,0.48780137600957224,0.18025843503230438,0.48780137600957224,0.48068916008614504,0.48780137600957224,0.24034458004307252,0.48780137600957224,0.2804020100502513
113,0.4921567454382291,0.10014357501794688,0.4921567454382291,0.24034458004307252,0.4921567454382291,0.18025843503230438,0.4921567454382291,0.48068916008614504,0.4921567454382291,0.24034458004307252,0.4921567454382291,0.30043072505384066
114,0.496512114866886,0.10014357501794688,0.496512114866886,0.24034458004307252,0.496512114866886,0.18025843503230438,0.496512114866886,0.48068916008614504,0.496512114866886,0.24034458004307252,0.496512114866886,0.32045944005743
115,0.500867484295543,0.10014357501794688,0.500867484295543,0.24034458004307252,0.500867484295543,0.18025843503230438,0.500867484295543,0.48068916008614504,0.500867484295543,0.24034458004307252,0.500867484295543,0.36051687006460875
116,0.5052228537241998,0.10014357501794688,0.5052228537241998,0.24034458004307252,0.5052228537241998,0.160229720028715,0.5052228537241998,0.48068916008614504,0.5052228537241998,0.24034458004307252,0.5052228537241998,0.4005743000717875
117,0.5095782231528567,0.10014357501794688,0.5095782231528567,0.24034458004307252,0.5095782231528567,0.160229720028715,0.5095782231528567,0.48068916008614504,0.5095782231528567,0.24034458004307252,0.5095782231528567,0.4206030150753769
118,0.5139335925815136,0.10014357501794688,0.5139335925815136,0.24034458004307252,0.5139335925815136,0.160229720028715,0.5139335925815136,0.48068916008614504,0.5139335925815136,0.24034458004307252,0.5139335925815136,0.4406317300789663
119,0.5182889620101705,0.10014357501794688,0.5182889620101705,0.24034458004307252,0.5182889620101705,0.160229720028715,0.5182889620101705,0.48068916008614504,0.5182889620101705,0.24034458004307252,0.5182889620101705,0.4406317300789663
120,0.5226443314388274,0.10014357501794688,0.5226443314388274,0.24034458004307252,0.5226443314388274,0.160229720028715,0.5226443314388274,0.48068916008614504,0.5226443314388274,0.24034458004307252,0.5226443314388274,0.4406317300789663
121,0.5269997008674843,0.12017229002153626,0.5269997008674843,0.24034458004307252,0.5269997008674843,0.160229720028715,0.5269997008674843,0.48068916008614504,0.5269997008674843,0.24034458004307252,0.5269997008674843,0.4406317300789663
122,0.5313550702961412,0.12017229002153626,0.5313550702961412,0.24034458004307252,0.5313550702961412,0.160229720028715,0.5313550702961412,0.48068916008614504,0.5313550702961412,0.24034458004307252,0.5313550702961412,0.4406317300789663
123,0.535710439724798,0.12017229002153626,0.535710439724798,0.24034458004307252,0.535710439724798,0.18025843503230438,0.535710439724798,0.48068916008614504,0.535710439724798,0.24034458004307252,0.535710439724798,0.4406317300789663
124,0.540065809153455,0.14020100502512564,0.540065809153455,0.24034458004307252,0.540065809153455,0.18025843503230438,0.540065809153455,0.48068916008614504,0.540065809153455,0.24034458004307252,0.540065809153455,0.4406317300789663
125,0.5444211785821119,0.14020100502512564,0.5444211785821119,0.24034458004307252,0.5444211785821119,0.18025843503230438,0.5444211785821119,0.48068916008614504,0.5444211785821119,0.24034458004307252,0.5444211785821119,0.4406317300789663
126,0.5487765480107688,0.160229720028715,0.5487765480107688,0.24034458004307252,0.5487765480107688,0.18025843503230438,0.5487765480107688,0.48068916008614504,0.5487765480107688,0.24034458004307252,0.5487765480107688,0.4406317300789663
127,0.5531319174394257,0.18025843503230438,0.5531319174394257,0.2603732950466619,0.5531319174394257,0.18025843503230438,0.5531319174394257,0.48068916008614504,0.5531319174394257,0.24034458004307252,0.5531319174394257,0.4406317300789663
128,0.5574872868680826,0.18025843503230438,0.5574872868680826,0.2603732950466619,0.5574872868680826,0.20028715003589376,0.5574872868680826,0.48068916008614504,0.5574872868680826,0.24034458004307252,0.5574872868680826,0.4406317300789663
129,0.5618426562967395,0.20028715003589376,0.5618426562967395,0.2603732950466619,0.5618426562967395,0.20028715003589376,0.5618426562967395,0.48068916008614504,0.5618426562967395,0.24034458004307252,0.5618426562967395,0.4406317300789663
130,0.5661980257253963,0.22031586503948314,0.5661980257253963,0.2603732950466619,0.5661980257253963,0.20028715003589376,0.5661980257253963,0.48068916008614504,0.5661980257253963,0.24034458004307252,0.5661980257253963,0.4406317300789663
131,0.5705533951540532,0.22031586503948314,0.5705533951540532,0.2603732950466619,0.5705533951540532,0.22031586503948314,0.5705533951540532,0.48068916008614504,0.5705533951540532,0.24034458004307252,0.5705533951540532,0.4406317300789663
132,0.5749087645827101,0.24034458004307252,0.5749087645827101,0.2603732950466619,0.5749087645827101,0.22031586503948314,0.5749087645827101,0.48068916008614504,0.5749087645827101,0.24034458004307252,0.5749087645827101,0.4406317300789663
133,0.579264134011367,0.24034458004307252,0.579264134011367,0.2603732950466619,0.579264134011367,0.22031586503948314,0.579264134011367,0.46066044508255566,0.579264134011367,0.24034458004307252,0.579264134011367,0.4406317300789663
134,0.5836195034400239,0.24034458004307252,0.5836195034400239,0.2603732950466619,0.5836195034400239,0.24034458004307252,0.5836195034400239,0.46066044508255566,0.5836195034400239,0.24034458004307252,0.5836195034400239,0.4406317300789663
135,0.5879748728686808,0.24034458004307252,0.5879748728686808,0.2603732950466619,0.5879748728686808,0.24034458004307252,0.5879748728686808,0.46066044508255566,0.5879748728686808,0.24034458004307252,0.5879748728686808,0.4406317300789663
136,0.5923302422973378,0.2603732950466619,0.5923302422973378,0.2603732950466619,0.5923302422973378,0.24034458004307252,0.5923302422973378,0.4406317300789663,0.5923302422973378,0.24034458004307252,0.5923302422973378,0.4406317300789663
137,0.5966856117259947,0.2603732950466619,0.5966856117259947,0.2603732950466619,0.5966856117259947,0.24034458004307252,0.5966856117259947,0.4206030150753769,0.5966856117259947,0.22031586503948314,0.5966856117259947,0.4206030150753769
138,0.6010409811546515,0.2603732950466619,0.6010409811546515,0.2603732950466619,0.6010409811546515,0.24034458004307252,0.6010409811546515,0.4005743000717875,0.6010409811546515,0.22031586503948314,0.6010409811546515,0.4206030150753769
139,0.6053963505833084,0.2804020100502513,0.6053963505833084,0.2603732950466619,0.6053963505833084,0.24034458004307252,0.6053963505833084,0.4005743000717875,0.6053963505833084,0.22031586503948314,0.6053963505833084,0.4005743000717875
140,0.6097517200119653,0.2804020100502513,0.6097517200119653,0.2603732950466619,0.6097517200119653,0.24034458004307252,0.6097517200119653,0.38054558506819813,0.6097517200119653,0.22031586503948314,0.6097517200119653,0.4005743000717875
141,0.6141070894406222,0.2804020100502513,0.6141070894406222,0.2804020100502513,0.6141070894406222,0.24034458004307252,0.6141070894406222,0.36051687006460875,0.6141070894406222,0.22031586503948314,0.6141070894406222,0.4005743000717875
142,0.6184624588692791,0.30043072505384066,0.6184624588692791,0.2804020100502513,0.6184624588692791,0.24034458004307252,0.6184624588692791,0.36051687006460875,0.6184624588692791,0.24034458004307252,0.6184624588692791,0.38054558506819813
143,0.622817828297936,0.32045944005743,0.622817828297936,0.2804020100502513,0.622817828297936,0.24034458004307252,0.622817828297936,0.34048815506101937,0.622817828297936,0.24034458004307252,0.622817828297936,0.36051687006460875
144,0.6271731977265929,0.32045944005743,0.6271731977265929,0.2804020100502513,0.6271731977265929,0.24034458004307252,0.6271731977265929,0.34048815506101937,0.6271731977265929,0.24034458004307252,0.6271731977265929,0.36051687006460875
145,0.6315285671552497,0.32045944005743,0.6315285671552497,0.2804020100502513,0.6315285671552497,0.24034458004307252,0.6315285671552497,0.32045944005743,0.6315285671552497,0.24034458004307252,0.6315285671552497,0.34048815506101937
146,0.6358839365839066,0.34048815506101937,0.6358839365839066,0.2804020100502513,0.6358839365839066,0.24034458004307252,0.6358839365839066,0.32045944005743,0.6358839365839066,0.2603732950466619,0.6358839365839066,0.32045944005743
147,0.6402393060125635,0.34048815506101937,0.6402393060125635,0.30043072505384066,0.6402393060125635,0.24034458004307252,0.6402393060125635,0.30043072505384066,0.6402393060125635,0.2603732950466619,0.6402393060125635,0.30043072505384066
148,0.6445946754412205,0.34048815506101937,0.6445946754412205,0.30043072505384066,0.6445946754412205,0.24034458004307252,0.6445946754412205,0.30043072505384066,0.6445946754412205,0.2804020100502513,0.6445946754412205,0.2804020100502513
149,0.6489500448698774,0.34048815506101937,0.6489500448698774,0.30043072505384066,0.6489500448698774,0.24034458004307252,0.6489500448698774,0.2804020100502513,0.6489500448698774,0.30043072505384066,0.6489500448698774,0.2804020100502513
150,0.6533054142985343,0.34048815506101937,0.6533054142985343,0.32045944005743,0.6533054142985343,0.24034458004307252,0.6533054142985343,0.2603732950466619,0.6533054142985343,0.30043072505384066,0.6533054142985343,0.2804020100502513
151,0.6576607837271912,0.34048815506101937,0.6576607837271912,0.32045944005743,0.6576607837271912,0.24034458004307252,0.6576607837271912,0.24034458004307252,0.6576607837271912,0.32045944005743,0.6576607837271912,0.30043072505384066
152,0.662016153155848,0.34048815506101937,0.662016153155848,0.34048815506101937,0.662016153155848,0.24034458004307252,0.662016153155848,0.24034458004307252,0.662016153155848,0.32045944005743,0.662016153155848,0.30043072505384066
153,0.6663715225845049,0.34048815506101937,0.6663715225845049,0.36051687006460875,0.6663715225845049,0.24034458004307252,0.6663715225845049,0.22031586503948314,0.6663715225845049,0.34048815506101937,0.6663715225845049,0.30043072505384066
154,0.6707268920131618,0.34048815506101937,0.6707268920131618,0.38054558506819813,0.6707268920131618,0.24034458004307252,0.6707268920131618,0.22031586503948314,0.6707268920131618,0.34048815506101937,0.6707268920131618,0.30043072505384066
155,0.6750822614418187,0.34048815506101937,0.6750822614418187,0.38054558506819813,0.6750822614418187,0.24034458004307252,0.6750822614418187,0.20028715003589376,0.6750822614418187,0.34048815506101937,0.6750822614418187,0.30043072505384066
156,0.6794376308704756,0.34048815506101937,0.6794376308704756,0.4005743000717875,0.6794376308704756,0.24034458004307252,0.6794376308704756,0.20028715003589376,0.6794376308704756,0.34048815506101937,0.6794376308704756,0.30043072505384066
157,0.6837930002991325,0.34048815506101937,0.6837930002991325,0.4005743000717875,0.6837930002991325,0.24034458004307252,0.6837930002991325,0.20028715003589376,0.6837930002991325,0.36051687006460875,0.6837930002991325,0.30043072505384066
158,0.6881483697277894,0.34048815506101937,0.6881483697277894,0.4206030150753769,0.6881483697277894,0.22031586503948314,0.6881483697277894,0.20028715003589376,0.6881483697277894,0.36051687006460875,0.6881483697277894,0.30043072505384066
159,0.6925037391564464,0.34048815506101937,0.6925037391564464,0.4206030150753769,0.6925037391564464,0.22031586503948314,0.6925037391564464,0.20028715003589376,0.6925037391564464,0.36051687006460875,0.6925037391564464,0.30043072505384066
160,0.6968591085851032,0.34048815506101937,0.6968591085851032,0.4406317300789663,0.6968591085851032,0.22031586503948314,0.6968591085851032,0.18025843503230438,0.6968591085851032,0.38054558506819813,0.6968591085851032,0.30043072505384066
161,0.7012144780137601,0.34048815506101937,0.7012144780137601,0.4406317300789663,0.7012144780137601,0.22031586503948314,0.7012144780137601,0.18025843503230438,0.7012144780137601,0.38054558506819813,0.7012144780137601,0.30043072505384066
162,0.705569847442417,0.34048815506101937,0.705569847442417,0.4406317300789663,0.705569847442417,0.22031586503948314,0.705569847442417,0.18025843503230438,0.705569847442417,0.4005743000717875,0.705569847442417,0.30043072505384066
163,0.7099252168710739,0.34048815506101937,0.7099252168710739,0.4406317300789663,0.7099252168710739,0.22031586503948314,0.7099252168710739,0.18025843503230438,0.7099252168710739,0.4005743000717875,0.7099252168710739,0.30043072505384066
164,0.7142805862997308,0.34048815506101937,0.7142805862997308,0.4406317300789663,0.7142805862997308,0.20028715003589376,0.7142805862997308,0.18025843503230438,0.7142805862997308,0.4005743000717875,0.7142805862997308,0.30043072505384066
165,0.7186359557283877,0.34048815506101937,0.7186359557283877,0.4406317300789663,0.7186359557283877,0.20028715003589376,0.7186359557283877,0.18025843503230438,0.7186359557283877,0.4005743000717875,0.7186359557283877,0.30043072505384066
166,0.7229913251570446,0.34048815506101937,0.7229913251570446,0.4406317300789663,0.7229913251570446,0.20028715003589376,0.7229913251570446,0.18025843503230438,0.7229913251570446,0.4005743000717875,0.7229913251570446,0.30043072505384066
167,0.7273466945857014,0.34048815506101937,0.7273466945857014,0.4406317300789663,0.7273466945857014,0.20028715003589376,0.7273466945857014,0.18025843503230438,0.7273466945857014,0.4005743000717875,0.7273466945857014,0.30043072505384066
168,0.7317020640143583,0.34048815506101937,0.7317020640143583,0.4406317300789663,0.7317020640143583,0.20028715003589376,0.7317020640143583,0.18025843503230438,0.7317020640143583,0.4005743000717875,0.7317020640143583,0.30043072505384066
169,0.7360574334430152,0.32045944005743,0.7360574334430152,0.4406317300789663,0.7360574334430152,0.20028715003589376,0.7360574334430152,0.18025843503230438,0.7360574334430152,0.4005743000717875,0.7360574334430152,0.30043072505384066
170,0.7404128028716721,0.32045944005743,0.7404128028716721,0.4406317300789663,0.7404128028716721,0.20028715003589376,0.7404128028716721,0.18025843503230438,0.7404128028716721,0.4005743000717875,0.7404128028716721,0.30043072505384066
171,0.7447681723003291,0.30043072505384066,0.7447681723003291,0.4406317300789663,0.7447681723003291,0.20028715003589376,0.7447681723003291,0.160229720028715,0.7447681723003291,0.4005743000717875,0.7447681723003291,0.32045944005743
172,0.749123541728986,0.2804020100502513,0.749123541728986,0.4406317300789663,0.749123541728986,0.20028715003589376,0.749123541728986,0.160229720028715,0.749123541728986,0.4005743000717875,0.749123541728986,0.32045944005743
173,0.7534789111576429,0.2603732950466619,0.7534789111576429,0.4406317300789663,0.7534789111576429,0.20028715003589376,0.7534789111576429,0.160229720028715,0.7534789111576429,0.4005743000717875,0.7534789111576429,0.34048815506101937
174,0.7578342805862998,0.24034458004307252,0.7578342805862998,0.4406317300789663,0.7578342805862998,0.20028715003589376,0.7578342805862998,0.160229720028715,0.7578342805862998,0.4005743000717875,0.7578342805862998,0.36051687006460875
175,0.7621896500149566,0.22031586503948314,0.7621896500149566,0.4406317300789663,0.7621896500149566,0.20028715003589376,0.7621896500149566,0.160229720028715,0.7621896500149566,0.4005743000717875,0.7621896500149566,0.36051687006460875
176,0.7665450194436135,0.20028715003589376,0.7665450194436135,0.4406317300789663,0.7665450194436135,0.20028715003589376,0.7665450194436135,0.14020100502512564,0.7665450194436135,0.4005743000717875,0.7665450194436135,0.38054558506819813
177,0.7709003888722704,0.18025843503230438,0.7709003888722704,0.4406317300789663,0.7709003888722704,0.20028715003589376,0.7709003888722704,0.14020100502512564,0.7709003888722704,0.4005743000717875,0.7709003888722704,0.38054558506819813
178,0.7752557583009273,0.160229720028715,0.7752557583009273,0.4406317300789663,0.7752557583009273,0.20028715003589376,0.7752557583009273,0.14020100502512564,0.7752557583009273,0.4005743000717875,0.7752557583009273,0.38054558506819813
179,0.7796111277295842,0.14020100502512564,0.7796111277295842,0.4406317300789663,0.7796111277295842,0.20028715003589376,0.7796111277295842,0.14020100502512564,0.7796111277295842,0.4005743000717875,0.7796111277295842,0.38054558506819813
180,0.7839664971582411,0.14020100502512564,0.7839664971582411,0.4406317300789663,0.7839664971582411,0.18025843503230438,0.7839664971582411,0.14020100502512564,0.7839664971582411,0.4005743000717875,0.7839664971582411,0.38054558506819813
181,0.788321866586898,0.12017229002153626,0.788321866586898,0.4206030150753769,0.788321866586898,0.18025843503230438,0.788321866586898,0.14020100502512564,0.788321866586898,0.4005743000717875,0.788321866586898,0.38054558506819813
182,0.7926772360155548,0.12017229002153626,0.7926772360155548,0.4206030150753769,0.7926772360155548,0.18025843503230438,0.7926772360155548,0.14020100502512564,0.7926772360155548,0.4005743000717875,0.7926772360155548,0.4005743000717875
183,0.7970326054442118,0.10014357501794688,0.7970326054442118,0.4005743000717875,0.7970326054442118,0.160229720028715,0.7970326054442118,0.14020100502512564,0.7970326054442118,0.4005743000717875,0.7970326054442118,0.4005743000717875
184,0.8013879748728687,0.10014357501794688,0.8013879748728687,0.38054558506819813,0.8013879748728687,0.160229720028715,0.8013879748728687,0.14020100502512564,0.8013879748728687,0.38054558506819813,0.8013879748728687,0.4005743000717875
185,0.8057433443015256,0.10014357501794688,0.8057433443015256,0.36051687006460875,0.8057433443015256,0.18025843503230438,0.8057433443015256,0.14020100502512564,0.8057433443015256,0.36051687006460875,0.8057433443015256,0.4005743000717875
186,0.8100987137301825,0.0801148600143575,0.8100987137301825,0.34048815506101937,0.8100987137301825,0.18025843503230438,0.8100987137301825,0.160229720028715,0.8100987137301825,0.36051687006460875,0.8100987137301825,0.4005743000717875
187,0.8144540831588394,0.0801148600143575,0.8144540831588394,0.32045944005743,0.8144540831588394,0.18025843503230438,0.8144540831588394,0.160229720028715,0.8144540831588394,0.34048815506101937,0.8144540831588394,0.4005743000717875
188,0.8188094525874963,0.0801148600143575,0.8188094525874963,0.30043072505384066,0.8188094525874963,0.18025843503230438,0.8188094525874963,0.160229720028715,0.8188094525874963,0.34048815506101937,0.8188094525874963,0.4005743000717875
189,0.8231648220161532,0.06008614501076813,0.8231648220161532,0.2804020100502513,0.8231648220161532,0.18025843503230438,0.8231648220161532,0.160229720028715,0.8231648220161532,0.32045944005743,0.8231648220161532,0.4005743000717875
190,0.82752019144481,0.06008614501076813,0.82752019144481,0.2804020100502513,0.82752019144481,0.18025843503230438,0.82752019144481,0.160229720028715,0.82752019144481,0.32045944005743,0.82752019144481,0.4005743000717875
191,0.8318755608734669,0.06008614501076813,0.8318755608734669,0.2804020100502513,0.8318755608734669,0.18025843503230438,0.8318755608734669,0.160229720028715,0.8318755608734669,0.30043072505384066,0.8318755608734669,0.4005743000717875
192,0.8362309303021238,0.06008614501076813,0.8362309303021238,0.2603732950466619,0.8362309303021238,0.18025843503230438,0.8362309303021238,0.160229720028715,0.8362309303021238,0.30043072505384066,0.8362309303021238,0.4005743000717875
193,0.8405862997307807,0.06008614501076813,0.8405862997307807,0.2603732950466619,0.8405862997307807,0.18025843503230438,0.8405862997307807,0.160229720028715,0.8405862997307807,0.2804020100502513,0.8405862997307807,0.4005743000717875
194,0.8449416691594376,0.04005743000717875,0.8449416691594376,0.2603732950466619,0.8449416691594376,0.18025843503230438,0.8449416691594376,0.160229720028715,0.8449416691594376,0.2603732950466619,0.8449416691594376,0.4005743000717875
195,0.8492970385880946,0.04005743000717875,0.8492970385880946,0.2603732950466619,0.8492970385880946,0.18025843503230438,0.8492970385880946,0.160229720028715,0.8492970385880946,0.2603732950466619,0.8492970385880946,0.4005743000717875
196,0.8536524080167515,0.04005743000717875,0.8536524080167515,0.2603732950466619,0.8536524080167515,0.18025843503230438,0.8536524080167515,0.160229720028715,0.8536524080167515,0.24034458004307252,0.8536524080167515,0.4005743000717875
197,0.8580077774454083,0.04005743000717875,0.8580077774454083,0.2603732950466619,0.8580077774454083,0.18025843503230438,0.8580077774454083,0.160229720028715,0.8580077774454083,0.24034458004307252,0.8580077774454083,0.4005743000717875
198,0.8623631468740652,0.04005743000717875,0.8623631468740652,0.24034458004307252,0.8623631468740652,0.18025843503230438,0.8623631468740652,0.160229720028715,0.8623631468740652,0.24034458004307252,0.8623631468740652,0.4005743000717875
199,0.8667185163027221,0.04005743000717875,0.8667185163027221,0.24034458004307252,0.8667185163027221,0.18025843503230438,0.8667185163027221,0.160229720028715,0.8667185163027221,0.22031586503948314,0.8667185163027221,0.4005743000717875
200,0.871073885731379,0.04005743000717875,0.871073885731379,0.24034458004307252,0.871073885731379,0.18025843503230438,0.871073885731379,0.160229720028715,0.871073885731379,0.22031586503948314,0.871073885731379,0.4005743000717875
201,0.8754292551600359,0.04005743000717875,0.8754292551600359,0.24034458004307252,0.8754292551600359,0.18025843503230438,0.8754292551600359,0.18025843503230438,0.8754292551600359,0.22031586503948314,0.8754292551600359,0.38054558506819813
202,0.8797846245886928,0.04005743000717875,0.8797846245886928,0.24034458004307252,0.8797846245886928,0.18025843503230438,0.8797846245886928,0.18025843503230438,0.8797846245886928,0.22031586503948314,0.8797846245886928,0.38054558506819813
203,0.8841399940173497,0.04005743000717875,0.8841399940173497,0.24034458004307252,0.8841399940173497,0.18025843503230438,0.8841399940173497,0.18025843503230438,0.8841399940173497,0.22031586503948314,0.8841399940173497,0.36051687006460875
204,0.8884953634460065,0.04005743000717875,0.8884953634460065,0.22031586503948314,0.8884953634460065,0.18025843503230438,0.8884953634460065,0.18025843503230438,0.8884953634460065,0.20028715003589376,0.8884953634460065,0.34048815506101937
205,0.8928507328746634,0.04005743000717875,0.8928507328746634,0.22031586503948314,0.8928507328746634,0.18025843503230438,0.8928507328746634,0.18025843503230438,0.8928507328746634,0.20028715003589376,0.8928507328746634,0.34048815506101937
206,0.8972061023033204,0.04005743000717875,0.8972061023033204,0.22031586503948314,0.8972061023033204,0.18025843503230438,0.8972061023033204,0.18025843503230438,0.8972061023033204,0.20028715003589376,0.8972061023033204,0.34048815506101937
207,0.9015614717319773,0.04005743000717875,0.9015614717319773,0.20028715003589376,0.9015614717319773,0.18025843503230438,0.9015614717319773,0.18025843503230438,0.9015614717319773,0.20028715003589376,0.9015614717319773,0.34048815506101937
208,0.9059168411606342,0.04005743000717875,0.9059168411606342,0.20028715003589376,0.9059168411606342,0.18025843503230438,0.9059168411606342,0.18025843503230438,0.9059168411606342,0.18025843503230438,0.9059168411606342,0.34048815506101937
209,0.9102722105892911,0.04005743000717875,0.9102722105892911,0.20028715003589376,0.9102722105892911,0.18025843503230438,0.9102722105892911,0.18025843503230438,0.9102722105892911,0.18025843503230438,0.9102722105892911,0.34048815506101937
210,0.914627580017948,0.04005743000717875,0.914627580017948,0.18025843503230438,0.914627580017948,0.18025843503230438,0.914627580017948,0.18025843503230438,0.914627580017948,0.18025843503230438,0.914627580017948,0.34048815506101937
211,0.9189829494466049,0.04005743000717875,0.9189829494466049,0.18025843503230438,0.9189829494466049,0.18025843503230438,0.9189829494466049,0.18025843503230438,0.9189829494466049,0.18025843503230438,0.9189829494466049,0.34048815506101937
212,0.9233383188752617,0.04005743000717875,0.9233383188752617,0.18025843503230438,0.9233383188752617,0.18025843503230438,0.9233383188752617,0.18025843503230438,0.9233383188752617,0.18025843503230438,0.9233383188752617,0.34048815506101937
213,0.9276936883039186,0.04005743000717875,0.9276936883039186,0.18025843503230438,0.9276936883039186,0.18025843503230438,0.9276936883039186,0.18025843503230438,0.9276936883039186,0.160229720028715,0.9276936883039186,0.34048815506101937
214,0.9320490577325755,0.020028715003589374,0.9320490577325755,0.160229720028715,0.9320490577325755,0.18025843503230438,0.9320490577325755,0.18025843503230438,0.9320490577325755,0.160229720028715,0.9320490577325755,0.34048815506101937
215,0.9364044271612324,0.020028715003589374,0.9364044271612324,0.160229720028715,0.9364044271612324,0.160229720028715,0.9364044271612324,0.18025843503230438,0.9364044271612324,0.14020100502512564,0.9364044271612324,0.34048815506101937
216,0.9407597965898893,0.04005743000717875,0.9407597965898893,0.160229720028715,0.9407597965898893,0.160229720028715,0.9407597965898893,0.18025843503230438,0.9407597965898893,0.14020100502512564,0.9407597965898893,0.34048815506101937
217,0.9451151660185462,0.06008614501076813,0.9451151660185462,0.160229720028715,0.9451151660185462,0.160229720028715,0.9451151660185462,0.18025843503230438,0.9451151660185462,0.12017229002153626,0.9451151660185462,0.34048815506101937
218,0.9494705354472032,0.0801148600143575,0.9494705354472032,0.14020100502512564,0.9494705354472032,0.14020100502512564,0.9494705354472032,0.18025843503230438,0.9494705354472032,0.12017229002153626,0.9494705354472032,0.34048815506101937
219,0.95382590487586,0.14020100502512564,0.95382590487586,0.14020100502512564,0.95382590487586,0.14020100502512564,0.95382590487586,0.18025843503230438,0.95382590487586,0.10014357501794688,0.95382590487586,0.34048815506101937
220,0.9581812743045169,0.18025843503230438,0.9581812743045169,0.14020100502512564,0.9581812743045169,0.14020100502512564,0.9581812743045169,0.18025843503230438,0.9581812743045169,0.10014357501794688,0.9581812743045169,0.34048815506101937
221,0.9625366437331738,0.22031586503948314,0.9625366437331738,0.14020100502512564,0.9625366437331738,0.14020100502512564,0.9625366437331738,0.18025843503230438,0.9625366437331738,0.10014357501794688,0.9625366437331738,0.34048815506101937
222,0.9668920131618307,0.2603732950466619,0.9668920131618307,0.12017229002153626,0.9668920131618307,0.14020100502512564,0.9668920131618307,0.18025843503230438,0.9668920131618307,0.10014357501794688,0.9668920131618307,0.34048815506101937
223,0.9712473825904876,0.2804020100502513,0.9712473825904876,0.12017229002153626,0.9712473825904876,0.14020100502512564,0.9712473825904876,0.18025843503230438,0.9712473825904876,0.0801148600143575,0.9712473825904876,0.32045944005743
224,0.9756027520191445,0.30043072505384066,0.9756027520191445,0.12017229002153626,0.9756027520191445,0.160229720028715,0.9756027520191445,0.18025843503230438,0.9756027520191445,0.0801148600143575,0.9756027520191445,0.30043072505384066
225,0.9799581214478014,0.30043072505384066,0.9799581214478014,0.10014357501794688,0.9799581214478014,0.160229720028715,0.9799581214478014,0.18025843503230438,0.9799581214478014,0.0801148600143575,0.9799581214478014,0.2804020100502513
226,0.9843134908764583,0.30043072505384066,0.9843134908764583,0.10014357501794688,0.9843134908764583,0.20028715003589376,0.9843134908764583,0.18025843503230438,0.9843134908764583,0.0801148600143575,0.9843134908764583,0.2804020100502513
227,0.9886688603051151,0.30043072505384066,0.9886688603051151,0.0801148600143575,0.9886688603051151,0.22031586503948314,0.9886688603051151,0.18025843503230438,0.9886688603051151,0.0801148600143575,0.9886688603051151,0.2603732950466619
228,0.993024229733772,0.30043072505384066,0.993024229733772,0.0801148600143575,0.993024229733772,0.24034458004307252,0.993024229733772,0.160229720028715,0.993024229733772,0.0801148600143575,0.993024229733772,0.2603732950466619
229,0.9973795991624289,0.6809763101220387,0.9973795991624289,0.06008614501076813,0.9973795991624289,0.2804020100502513,0.9973795991624289,0.160229720028715,0.9973795991624289,0.0801148600143575,0.9973795991624289,0.2603732950466619
230,1.001734968591086,0.7010050251256281,1.001734968591086,0.06008614501076813,1.001734968591086,0.2804020100502513,1.001734968591086,0.160229720028715,1.001734968591086,0.0801148600143575,1.001734968591086,0.2603732950466619
231,1.0060903380197428,0.7210337401292175,1.0060903380197428,0.0801148600143575,1.0060903380197428,0.30043072505384066,1.0060903380197428,0.160229720028715,1.0060903380197428,0.0801148600143575,1.0060903380197428,0.24034458004307252
232,1.0104457074483997,0.7210337401292175,1.0104457074483997,0.0801148600143575,1.0104457074483997,0.30043072505384066,1.0104457074483997,0.160229720028715,1.0104457074483997,0.0801148600143575,1.0104457074483997,0.24034458004307252
233,1.0148010768770566,0.7210337401292175,1.0148010768770566,0.10014357501794688,1.0148010768770566,0.30043072505384066,1.0148010768770566,0.160229720028715,1.0148010768770566,0.0801148600143575,1.0148010768770566,0.24034458004307252
234,1.0191564463057134,0.7210337401292175,1.0191564463057134,0.10014357501794688,1.0191564463057134,0.32045944005743,1.0191564463057134,0.160229720028715,1.0191564463057134,0.06008614501076813,1.0191564463057134,0.24034458004307252
235,1.0235118157343703,0.7210337401292175,1.0235118157343703,0.12017229002153626,1.0235118157343703,0.32045944005743,1.0235118157343703,0.18025843503230438,1.0235118157343703,0.0801148600143575,1.0235118157343703,0.24034458004307252
236,1.0278671851630272,0.7210337401292175,1.0278671851630272,0.14020100502512564,1.0278671851630272,0.32045944005743,1.0278671851630272,0.18025843503230438,1.0278671851630272,0.10014357501794688,1.0278671851630272,0.24034458004307252
237,1.032222554591684,0.7410624551328069,1.032222554591684,0.160229720028715,1.032222554591684,0.34048815506101937,1.032222554591684,0.18025843503230438,1.032222554591684,0.12017229002153626,1.032222554591684,0.24034458004307252
238,1.036577924020341,0.7410624551328069,1.036577924020341,0.18025843503230438,1.036577924020341,0.34048815506101937,1.036577924020341,0.20028715003589376,1.036577924020341,0.14020100502512564,1.036577924020341,0.24034458004307252
239,1.0409332934489979,0.7610911701363963,1.0409332934489979,0.22031586503948314,1.0409332934489979,0.36051687006460875,1.0409332934489979,0.22031586503948314,1.0409332934489979,0.18025843503230438,1.0409332934489979,0.24034458004307252
240,1.0452886628776548,0.8412060301507538,1.0452886628776548,0.2804020100502513,1.0452886628776548,0.4005743000717875,1.0452886628776548,0.24034458004307252,1.0452886628776548,0.22031586503948314,1.0452886628776548,0.24034458004307252
