,x_val,y_val,x_val,y_val,x_val,y_val,x_val,y_val,x_val,y_val,x_val,y_val,x_val,y_val,x_val,y_val
0,0.0,0.5747264200104221,0.0,0.19624804585721728,0.0,0.12615945805106826,0.0,0.434549244398124,0.0,0.7990099009900989,0.0,0.35044293903074514
1,0.001898244570068432,0.5747264200104221,0.001898244570068432,0.18223032829598748,0.001898244570068432,0.12615945805106826,0.001898244570068432,0.434549244398124,0.001898244570068432,0.7990099009900989,0.001898244570068432,0.35044293903074514
2,0.003796489140136864,0.5747264200104221,0.003796489140136864,0.15419489317352786,0.003796489140136864,0.12615945805106826,0.003796489140136864,0.434549244398124,0.003796489140136864,0.7990099009900989,0.003796489140136864,0.35044293903074514
3,0.005694733710205296,0.5747264200104221,0.005694733710205296,0.18223032829598748,0.005694733710205296,0.11214174048983845,0.005694733710205296,0.434549244398124,0.005694733710205296,0.7849921834288691,0.005694733710205296,0.35044293903074514
4,0.007592978280273728,0.5747264200104221,0.007592978280273728,0.19624804585721728,0.007592978280273728,0.11214174048983845,0.007592978280273728,0.434549244398124,0.007592978280273728,0.7849921834288691,0.007592978280273728,0.35044293903074514
5,0.00949122285034216,0.5747264200104221,0.00949122285034216,0.21026576341844708,0.00949122285034216,0.09812402292860864,0.00949122285034216,0.434549244398124,0.00949122285034216,0.7849921834288691,0.00949122285034216,0.35044293903074514
6,0.011389467420410592,0.5747264200104221,0.011389467420410592,0.21026576341844708,0.011389467420410592,0.08410630536737883,0.011389467420410592,0.434549244398124,0.011389467420410592,0.7849921834288691,0.011389467420410592,0.36446065659197496
7,0.013287711990479024,0.5887441375716519,0.013287711990479024,0.21026576341844708,0.013287711990479024,0.07008858780614903,0.013287711990479024,0.434549244398124,0.013287711990479024,0.7849921834288691,0.013287711990479024,0.36446065659197496
8,0.015185956560547456,0.5887441375716519,0.015185956560547456,0.21026576341844708,0.015185956560547456,0.042053152683689414,0.015185956560547456,0.434549244398124,0.015185956560547456,0.7849921834288691,0.015185956560547456,0.36446065659197496
9,0.01708420113061589,0.5887441375716519,0.01708420113061589,0.21026576341844708,0.01708420113061589,0.07008858780614903,0.01708420113061589,0.434549244398124,0.01708420113061589,0.7990099009900989,0.01708420113061589,0.37847837415320473
10,0.01898244570068432,0.5887441375716519,0.01898244570068432,0.21026576341844708,0.01898244570068432,0.08410630536737883,0.01898244570068432,0.434549244398124,0.01898244570068432,0.7990099009900989,0.01898244570068432,0.39249609171443456
11,0.020880690270752754,0.6027618551328816,0.020880690270752754,0.21026576341844708,0.020880690270752754,0.09812402292860864,0.020880690270752754,0.434549244398124,0.020880690270752754,0.7990099009900989,0.020880690270752754,0.39249609171443456
12,0.022778934840821184,0.6167795726941114,0.022778934840821184,0.21026576341844708,0.022778934840821184,0.09812402292860864,0.022778934840821184,0.434549244398124,0.022778934840821184,0.7990099009900989,0.022778934840821184,0.39249609171443456
13,0.024677179410889618,0.6167795726941114,0.024677179410889618,0.21026576341844708,0.024677179410889618,0.09812402292860864,0.024677179410889618,0.434549244398124,0.024677179410889618,0.7990099009900989,0.024677179410889618,0.39249609171443456
14,0.026575423980958048,0.6307972902553413,0.026575423980958048,0.21026576341844708,0.026575423980958048,0.09812402292860864,0.026575423980958048,0.434549244398124,0.026575423980958048,0.7990099009900989,0.026575423980958048,0.39249609171443456
15,0.028473668551026482,0.6448150078165711,0.028473668551026482,0.21026576341844708,0.028473668551026482,0.09812402292860864,0.028473668551026482,0.434549244398124,0.028473668551026482,0.7990099009900989,0.028473668551026482,0.39249609171443456
16,0.030371913121094912,0.6448150078165711,0.030371913121094912,0.21026576341844708,0.030371913121094912,0.09812402292860864,0.030371913121094912,0.434549244398124,0.030371913121094912,0.7990099009900989,0.030371913121094912,0.39249609171443456
17,0.03227015769116334,0.6448150078165711,0.03227015769116334,0.21026576341844708,0.03227015769116334,0.09812402292860864,0.03227015769116334,0.434549244398124,0.03227015769116334,0.7990099009900989,0.03227015769116334,0.39249609171443456
18,0.03416840226123178,0.6448150078165711,0.03416840226123178,0.21026576341844708,0.03416840226123178,0.09812402292860864,0.03416840226123178,0.434549244398124,0.03416840226123178,0.7990099009900989,0.03416840226123178,0.39249609171443456
19,0.03606664683130021,0.6448150078165711,0.03606664683130021,0.21026576341844708,0.03606664683130021,0.09812402292860864,0.03606664683130021,0.434549244398124,0.03606664683130021,0.7990099009900989,0.03606664683130021,0.39249609171443456
20,0.03796489140136864,0.6448150078165711,0.03796489140136864,0.21026576341844708,0.03796489140136864,0.09812402292860864,0.03796489140136864,0.4485669619593538,0.03796489140136864,0.7990099009900989,0.03796489140136864,0.39249609171443456
21,0.03986313597143708,0.6448150078165711,0.03986313597143708,0.21026576341844708,0.03986313597143708,0.09812402292860864,0.03986313597143708,0.4485669619593538,0.03986313597143708,0.7990099009900989,0.03986313597143708,0.39249609171443456
22,0.04176138054150551,0.6448150078165711,0.04176138054150551,0.21026576341844708,0.04176138054150551,0.09812402292860864,0.04176138054150551,0.4485669619593538,0.04176138054150551,0.7990099009900989,0.04176138054150551,0.39249609171443456
23,0.04365962511157394,0.6448150078165711,0.04365962511157394,0.21026576341844708,0.04365962511157394,0.09812402292860864,0.04365962511157394,0.4625846795205836,0.04365962511157394,0.7990099009900989,0.04365962511157394,0.39249609171443456
24,0.04555786968164237,0.6448150078165711,0.04555786968164237,0.21026576341844708,0.04555786968164237,0.09812402292860864,0.04555786968164237,0.4625846795205836,0.04555786968164237,0.7990099009900989,0.04555786968164237,0.39249609171443456
25,0.047456114251710806,0.6448150078165711,0.047456114251710806,0.21026576341844708,0.047456114251710806,0.09812402292860864,0.047456114251710806,0.4766023970818134,0.047456114251710806,0.7990099009900989,0.047456114251710806,0.39249609171443456
26,0.049354358821779236,0.6448150078165711,0.049354358821779236,0.21026576341844708,0.049354358821779236,0.09812402292860864,0.049354358821779236,0.4906201146430432,0.049354358821779236,0.7990099009900989,0.049354358821779236,0.39249609171443456
27,0.051252603391847666,0.6448150078165711,0.051252603391847666,0.21026576341844708,0.051252603391847666,0.09812402292860864,0.051252603391847666,0.4906201146430432,0.051252603391847666,0.7990099009900989,0.051252603391847666,0.39249609171443456
28,0.053150847961916096,0.6448150078165711,0.053150847961916096,0.21026576341844708,0.053150847961916096,0.09812402292860864,0.053150847961916096,0.504637832204273,0.053150847961916096,0.7990099009900989,0.053150847961916096,0.39249609171443456
29,0.055049092531984534,0.6448150078165711,0.055049092531984534,0.21026576341844708,0.055049092531984534,0.09812402292860864,0.055049092531984534,0.504637832204273,0.055049092531984534,0.7990099009900989,0.055049092531984534,0.39249609171443456
30,0.056947337102052964,0.6448150078165711,0.056947337102052964,0.21026576341844708,0.056947337102052964,0.09812402292860864,0.056947337102052964,0.5186555497655028,0.056947337102052964,0.7990099009900989,0.056947337102052964,0.39249609171443456
31,0.058845581672121394,0.6448150078165711,0.058845581672121394,0.21026576341844708,0.058845581672121394,0.09812402292860864,0.058845581672121394,0.5186555497655028,0.058845581672121394,0.7990099009900989,0.058845581672121394,0.39249609171443456
32,0.060743826242189825,0.6448150078165711,0.060743826242189825,0.21026576341844708,0.060743826242189825,0.09812402292860864,0.060743826242189825,0.5326732673267326,0.060743826242189825,0.7849921834288691,0.060743826242189825,0.39249609171443456
33,0.06264207081225825,0.6448150078165711,0.06264207081225825,0.21026576341844708,0.06264207081225825,0.09812402292860864,0.06264207081225825,0.5326732673267326,0.06264207081225825,0.7849921834288691,0.06264207081225825,0.39249609171443456
34,0.06454031538232669,0.6448150078165711,0.06454031538232669,0.21026576341844708,0.06454031538232669,0.09812402292860864,0.06454031538232669,0.5326732673267326,0.06454031538232669,0.7849921834288691,0.06454031538232669,0.39249609171443456
35,0.06643855995239513,0.6448150078165711,0.06643855995239513,0.21026576341844708,0.06643855995239513,0.09812402292860864,0.06643855995239513,0.5326732673267326,0.06643855995239513,0.7849921834288691,0.06643855995239513,0.39249609171443456
36,0.06833680452246356,0.6448150078165711,0.06833680452246356,0.21026576341844708,0.06833680452246356,0.09812402292860864,0.06833680452246356,0.5326732673267326,0.06833680452246356,0.7849921834288691,0.06833680452246356,0.39249609171443456
37,0.07023504909253199,0.6588327253778009,0.07023504909253199,0.21026576341844708,0.07023504909253199,0.09812402292860864,0.07023504909253199,0.5326732673267326,0.07023504909253199,0.7709744658676393,0.07023504909253199,0.39249609171443456
38,0.07213329366260042,0.6588327253778009,0.07213329366260042,0.21026576341844708,0.07213329366260042,0.09812402292860864,0.07213329366260042,0.5326732673267326,0.07213329366260042,0.7709744658676393,0.07213329366260042,0.39249609171443456
39,0.07403153823266885,0.6588327253778009,0.07403153823266885,0.21026576341844708,0.07403153823266885,0.09812402292860864,0.07403153823266885,0.5326732673267326,0.07403153823266885,0.7569567483064095,0.07403153823266885,0.39249609171443456
40,0.07592978280273728,0.6588327253778009,0.07592978280273728,0.21026576341844708,0.07592978280273728,0.09812402292860864,0.07592978280273728,0.5326732673267326,0.07592978280273728,0.7429390307451798,0.07592978280273728,0.39249609171443456
41,0.07782802737280571,0.6728504429390306,0.07782802737280571,0.21026576341844708,0.07782802737280571,0.09812402292860864,0.07782802737280571,0.5326732673267326,0.07782802737280571,0.7429390307451798,0.07782802737280571,0.39249609171443456
42,0.07972627194287416,0.6728504429390306,0.07972627194287416,0.21026576341844708,0.07972627194287416,0.09812402292860864,0.07972627194287416,0.5326732673267326,0.07972627194287416,0.7289213131839499,0.07972627194287416,0.39249609171443456
43,0.08162451651294259,0.6728504429390306,0.08162451651294259,0.21026576341844708,0.08162451651294259,0.09812402292860864,0.08162451651294259,0.5326732673267326,0.08162451651294259,0.7149035956227201,0.08162451651294259,0.39249609171443456
44,0.08352276108301102,0.6868681605002604,0.08352276108301102,0.21026576341844708,0.08352276108301102,0.09812402292860864,0.08352276108301102,0.5326732673267326,0.08352276108301102,0.7149035956227201,0.08352276108301102,0.39249609171443456
45,0.08542100565307945,0.6868681605002604,0.08542100565307945,0.21026576341844708,0.08542100565307945,0.09812402292860864,0.08542100565307945,0.5326732673267326,0.08542100565307945,0.7149035956227201,0.08542100565307945,0.39249609171443456
46,0.08731925022314788,0.7008858780614903,0.08731925022314788,0.21026576341844708,0.08731925022314788,0.09812402292860864,0.08731925022314788,0.5326732673267326,0.08731925022314788,0.7008858780614903,0.08731925022314788,0.39249609171443456
47,0.0892174947932163,0.7008858780614903,0.0892174947932163,0.21026576341844708,0.0892174947932163,0.09812402292860864,0.0892174947932163,0.5326732673267326,0.0892174947932163,0.7008858780614903,0.0892174947932163,0.39249609171443456
48,0.09111573936328474,0.7149035956227201,0.09111573936328474,0.21026576341844708,0.09111573936328474,0.09812402292860864,0.09111573936328474,0.5326732673267326,0.09111573936328474,0.7008858780614903,0.09111573936328474,0.39249609171443456
49,0.09301398393335317,0.7149035956227201,0.09301398393335317,0.21026576341844708,0.09301398393335317,0.09812402292860864,0.09301398393335317,0.5326732673267326,0.09301398393335317,0.7008858780614903,0.09301398393335317,0.39249609171443456
50,0.09491222850342161,0.7149035956227201,0.09491222850342161,0.21026576341844708,0.09491222850342161,0.09812402292860864,0.09491222850342161,0.5326732673267326,0.09491222850342161,0.6868681605002604,0.09491222850342161,0.39249609171443456
51,0.09681047307349004,0.7149035956227201,0.09681047307349004,0.21026576341844708,0.09681047307349004,0.09812402292860864,0.09681047307349004,0.5326732673267326,0.09681047307349004,0.6868681605002604,0.09681047307349004,0.37847837415320473
52,0.09870871764355847,0.7149035956227201,0.09870871764355847,0.21026576341844708,0.09870871764355847,0.09812402292860864,0.09870871764355847,0.5326732673267326,0.09870871764355847,0.6868681605002604,0.09870871764355847,0.37847837415320473
53,0.1006069622136269,0.7149035956227201,0.1006069622136269,0.21026576341844708,0.1006069622136269,0.09812402292860864,0.1006069622136269,0.5326732673267326,0.1006069622136269,0.6868681605002604,0.1006069622136269,0.36446065659197496
54,0.10250520678369533,0.7289213131839499,0.10250520678369533,0.21026576341844708,0.10250520678369533,0.09812402292860864,0.10250520678369533,0.5326732673267326,0.10250520678369533,0.6728504429390306,0.10250520678369533,0.36446065659197496
55,0.10440345135376376,0.7289213131839499,0.10440345135376376,0.21026576341844708,0.10440345135376376,0.09812402292860864,0.10440345135376376,0.5326732673267326,0.10440345135376376,0.6728504429390306,0.10440345135376376,0.35044293903074514
56,0.10630169592383219,0.7289213131839499,0.10630169592383219,0.21026576341844708,0.10630169592383219,0.09812402292860864,0.10630169592383219,0.5466909848879624,0.10630169592383219,0.6728504429390306,0.10630169592383219,0.35044293903074514
57,0.10819994049390062,0.7289213131839499,0.10819994049390062,0.21026576341844708,0.10819994049390062,0.09812402292860864,0.10819994049390062,0.5466909848879624,0.10819994049390062,0.6728504429390306,0.10819994049390062,0.35044293903074514
58,0.11009818506396907,0.7289213131839499,0.11009818506396907,0.21026576341844708,0.11009818506396907,0.09812402292860864,0.11009818506396907,0.5607087024491922,0.11009818506396907,0.6728504429390306,0.11009818506396907,0.35044293903074514
59,0.1119964296340375,0.7289213131839499,0.1119964296340375,0.21026576341844708,0.1119964296340375,0.09812402292860864,0.1119964296340375,0.5747264200104221,0.1119964296340375,0.6728504429390306,0.1119964296340375,0.35044293903074514
60,0.11389467420410593,0.7289213131839499,0.11389467420410593,0.21026576341844708,0.11389467420410593,0.09812402292860864,0.11389467420410593,0.6027618551328816,0.11389467420410593,0.6728504429390306,0.11389467420410593,0.35044293903074514
61,0.11579291877417436,0.7289213131839499,0.11579291877417436,0.21026576341844708,0.11579291877417436,0.09812402292860864,0.11579291877417436,0.6167795726941114,0.11579291877417436,0.6728504429390306,0.11579291877417436,0.35044293903074514
62,0.11769116334424279,0.7289213131839499,0.11769116334424279,0.21026576341844708,0.11769116334424279,0.09812402292860864,0.11769116334424279,0.6307972902553413,0.11769116334424279,0.6728504429390306,0.11769116334424279,0.35044293903074514
63,0.11958940791431122,0.7289213131839499,0.11958940791431122,0.21026576341844708,0.11958940791431122,0.09812402292860864,0.11958940791431122,0.6448150078165711,0.11958940791431122,0.6588327253778009,0.11958940791431122,0.35044293903074514
64,0.12148765248437965,0.7289213131839499,0.12148765248437965,0.21026576341844708,0.12148765248437965,0.09812402292860864,0.12148765248437965,0.6448150078165711,0.12148765248437965,0.6588327253778009,0.12148765248437965,0.35044293903074514
65,0.1233858970544481,0.7289213131839499,0.1233858970544481,0.21026576341844708,0.1233858970544481,0.09812402292860864,0.1233858970544481,0.6588327253778009,0.1233858970544481,0.6588327253778009,0.1233858970544481,0.35044293903074514
66,0.1252841416245165,0.7289213131839499,0.1252841416245165,0.21026576341844708,0.1252841416245165,0.09812402292860864,0.1252841416245165,0.6588327253778009,0.1252841416245165,0.6588327253778009,0.1252841416245165,0.35044293903074514
67,0.12718238619458494,0.7289213131839499,0.12718238619458494,0.21026576341844708,0.12718238619458494,0.09812402292860864,0.12718238619458494,0.6728504429390306,0.12718238619458494,0.6588327253778009,0.12718238619458494,0.35044293903074514
68,0.12908063076465337,0.7289213131839499,0.12908063076465337,0.21026576341844708,0.12908063076465337,0.09812402292860864,0.12908063076465337,0.6868681605002604,0.12908063076465337,0.6588327253778009,0.12908063076465337,0.35044293903074514
69,0.13097887533472183,0.7289213131839499,0.13097887533472183,0.21026576341844708,0.13097887533472183,0.09812402292860864,0.13097887533472183,0.6868681605002604,0.13097887533472183,0.6588327253778009,0.13097887533472183,0.35044293903074514
70,0.13287711990479026,0.7289213131839499,0.13287711990479026,0.21026576341844708,0.13287711990479026,0.09812402292860864,0.13287711990479026,0.7008858780614903,0.13287711990479026,0.6588327253778009,0.13287711990479026,0.35044293903074514
71,0.1347753644748587,0.7289213131839499,0.1347753644748587,0.21026576341844708,0.1347753644748587,0.09812402292860864,0.1347753644748587,0.7008858780614903,0.1347753644748587,0.6448150078165711,0.1347753644748587,0.35044293903074514
72,0.13667360904492712,0.7289213131839499,0.13667360904492712,0.21026576341844708,0.13667360904492712,0.09812402292860864,0.13667360904492712,0.7149035956227201,0.13667360904492712,0.6448150078165711,0.13667360904492712,0.35044293903074514
73,0.13857185361499555,0.7289213131839499,0.13857185361499555,0.21026576341844708,0.13857185361499555,0.09812402292860864,0.13857185361499555,0.7149035956227201,0.13857185361499555,0.6307972902553413,0.13857185361499555,0.35044293903074514
74,0.14047009818506398,0.7289213131839499,0.14047009818506398,0.21026576341844708,0.14047009818506398,0.09812402292860864,0.14047009818506398,0.7289213131839499,0.14047009818506398,0.6167795726941114,0.14047009818506398,0.35044293903074514
75,0.1423683427551324,0.7289213131839499,0.1423683427551324,0.21026576341844708,0.1423683427551324,0.09812402292860864,0.1423683427551324,0.7289213131839499,0.1423683427551324,0.5887441375716519,0.1423683427551324,0.35044293903074514
76,0.14426658732520084,0.7289213131839499,0.14426658732520084,0.21026576341844708,0.14426658732520084,0.09812402292860864,0.14426658732520084,0.7289213131839499,0.14426658732520084,0.5747264200104221,0.14426658732520084,0.35044293903074514
77,0.14616483189526927,0.7289213131839499,0.14616483189526927,0.21026576341844708,0.14616483189526927,0.09812402292860864,0.14616483189526927,0.7289213131839499,0.14616483189526927,0.5747264200104221,0.14616483189526927,0.35044293903074514
78,0.1480630764653377,0.7289213131839499,0.1480630764653377,0.21026576341844708,0.1480630764653377,0.09812402292860864,0.1480630764653377,0.7289213131839499,0.1480630764653377,0.5607087024491922,0.1480630764653377,0.35044293903074514
79,0.14996132103540613,0.7289213131839499,0.14996132103540613,0.21026576341844708,0.14996132103540613,0.09812402292860864,0.14996132103540613,0.7289213131839499,0.14996132103540613,0.5466909848879624,0.14996132103540613,0.35044293903074514
80,0.15185956560547456,0.7429390307451798,0.15185956560547456,0.21026576341844708,0.15185956560547456,0.09812402292860864,0.15185956560547456,0.7289213131839499,0.15185956560547456,0.5466909848879624,0.15185956560547456,0.35044293903074514
81,0.153757810175543,0.7429390307451798,0.153757810175543,0.21026576341844708,0.153757810175543,0.09812402292860864,0.153757810175543,0.7289213131839499,0.153757810175543,0.5326732673267326,0.153757810175543,0.35044293903074514
82,0.15565605474561142,0.7429390307451798,0.15565605474561142,0.21026576341844708,0.15565605474561142,0.09812402292860864,0.15565605474561142,0.7289213131839499,0.15565605474561142,0.5326732673267326,0.15565605474561142,0.35044293903074514
83,0.15755429931567985,0.7429390307451798,0.15755429931567985,0.21026576341844708,0.15755429931567985,0.09812402292860864,0.15755429931567985,0.7289213131839499,0.15755429931567985,0.5326732673267326,0.15755429931567985,0.35044293903074514
84,0.1594525438857483,0.7429390307451798,0.1594525438857483,0.21026576341844708,0.1594525438857483,0.09812402292860864,0.1594525438857483,0.7289213131839499,0.1594525438857483,0.5186555497655028,0.1594525438857483,0.35044293903074514
85,0.16135078845581674,0.7429390307451798,0.16135078845581674,0.21026576341844708,0.16135078845581674,0.09812402292860864,0.16135078845581674,0.7289213131839499,0.16135078845581674,0.5326732673267326,0.16135078845581674,0.35044293903074514
86,0.16324903302588517,0.7429390307451798,0.16324903302588517,0.21026576341844708,0.16324903302588517,0.09812402292860864,0.16324903302588517,0.7289213131839499,0.16324903302588517,0.5326732673267326,0.16324903302588517,0.35044293903074514
87,0.1651472775959536,0.7429390307451798,0.1651472775959536,0.21026576341844708,0.1651472775959536,0.09812402292860864,0.1651472775959536,0.7289213131839499,0.1651472775959536,0.5466909848879624,0.1651472775959536,0.35044293903074514
88,0.16704552216602203,0.7429390307451798,0.16704552216602203,0.21026576341844708,0.16704552216602203,0.09812402292860864,0.16704552216602203,0.7289213131839499,0.16704552216602203,0.5466909848879624,0.16704552216602203,0.35044293903074514
89,0.16894376673609046,0.7429390307451798,0.16894376673609046,0.21026576341844708,0.16894376673609046,0.09812402292860864,0.16894376673609046,0.7289213131839499,0.16894376673609046,0.5607087024491922,0.16894376673609046,0.35044293903074514
90,0.1708420113061589,0.7429390307451798,0.1708420113061589,0.21026576341844708,0.1708420113061589,0.09812402292860864,0.1708420113061589,0.7289213131839499,0.1708420113061589,0.5747264200104221,0.1708420113061589,0.35044293903074514
91,0.17274025587622732,0.7429390307451798,0.17274025587622732,0.21026576341844708,0.17274025587622732,0.09812402292860864,0.17274025587622732,0.7289213131839499,0.17274025587622732,0.5887441375716519,0.17274025587622732,0.35044293903074514
92,0.17463850044629575,0.7429390307451798,0.17463850044629575,0.21026576341844708,0.17463850044629575,0.09812402292860864,0.17463850044629575,0.7289213131839499,0.17463850044629575,0.6027618551328816,0.17463850044629575,0.35044293903074514
93,0.17653674501636418,0.7429390307451798,0.17653674501636418,0.2242834809796769,0.17653674501636418,0.09812402292860864,0.17653674501636418,0.7289213131839499,0.17653674501636418,0.6167795726941114,0.17653674501636418,0.35044293903074514
94,0.1784349895864326,0.7429390307451798,0.1784349895864326,0.2242834809796769,0.1784349895864326,0.09812402292860864,0.1784349895864326,0.7289213131839499,0.1784349895864326,0.6307972902553413,0.1784349895864326,0.35044293903074514
95,0.18033323415650104,0.7429390307451798,0.18033323415650104,0.2242834809796769,0.18033323415650104,0.09812402292860864,0.18033323415650104,0.7289213131839499,0.18033323415650104,0.6448150078165711,0.18033323415650104,0.35044293903074514
96,0.18223147872656947,0.7429390307451798,0.18223147872656947,0.2242834809796769,0.18223147872656947,0.09812402292860864,0.18223147872656947,0.7289213131839499,0.18223147872656947,0.6448150078165711,0.18223147872656947,0.35044293903074514
97,0.1841297232966379,0.7429390307451798,0.1841297232966379,0.2242834809796769,0.1841297232966379,0.09812402292860864,0.1841297232966379,0.7289213131839499,0.1841297232966379,0.6588327253778009,0.1841297232966379,0.35044293903074514
98,0.18602796786670633,0.7429390307451798,0.18602796786670633,0.2242834809796769,0.18602796786670633,0.09812402292860864,0.18602796786670633,0.7289213131839499,0.18602796786670633,0.6588327253778009,0.18602796786670633,0.35044293903074514
99,0.18792621243677476,0.7429390307451798,0.18792621243677476,0.2242834809796769,0.18792621243677476,0.11214174048983845,0.18792621243677476,0.7289213131839499,0.18792621243677476,0.6728504429390306,0.18792621243677476,0.36446065659197496
100,0.18982445700684322,0.7429390307451798,0.18982445700684322,0.2242834809796769,0.18982445700684322,0.11214174048983845,0.18982445700684322,0.7149035956227201,0.18982445700684322,0.6728504429390306,0.18982445700684322,0.36446065659197496
101,0.19172270157691165,0.7429390307451798,0.19172270157691165,0.2242834809796769,0.19172270157691165,0.11214174048983845,0.19172270157691165,0.7008858780614903,0.19172270157691165,0.6728504429390306,0.19172270157691165,0.36446065659197496
102,0.19362094614698008,0.7429390307451798,0.19362094614698008,0.2242834809796769,0.19362094614698008,0.11214174048983845,0.19362094614698008,0.6868681605002604,0.19362094614698008,0.6728504429390306,0.19362094614698008,0.36446065659197496
103,0.1955191907170485,0.7429390307451798,0.1955191907170485,0.2242834809796769,0.1955191907170485,0.11214174048983845,0.1955191907170485,0.6448150078165711,0.1955191907170485,0.6868681605002604,0.1955191907170485,0.36446065659197496
104,0.19741743528711694,0.7289213131839499,0.19741743528711694,0.2242834809796769,0.19741743528711694,0.11214174048983845,0.19741743528711694,0.6167795726941114,0.19741743528711694,0.6868681605002604,0.19741743528711694,0.36446065659197496
105,0.19931567985718537,0.7289213131839499,0.19931567985718537,0.2242834809796769,0.19931567985718537,0.11214174048983845,0.19931567985718537,0.6027618551328816,0.19931567985718537,0.6868681605002604,0.19931567985718537,0.36446065659197496
106,0.2012139244272538,0.7289213131839499,0.2012139244272538,0.2242834809796769,0.2012139244272538,0.11214174048983845,0.2012139244272538,0.5887441375716519,0.2012139244272538,0.6868681605002604,0.2012139244272538,0.36446065659197496
107,0.20311216899732223,0.7289213131839499,0.20311216899732223,0.2242834809796769,0.20311216899732223,0.11214174048983845,0.20311216899732223,0.5887441375716519,0.20311216899732223,0.7008858780614903,0.20311216899732223,0.37847837415320473
108,0.20501041356739066,0.7289213131839499,0.20501041356739066,0.2242834809796769,0.20501041356739066,0.11214174048983845,0.20501041356739066,0.5747264200104221,0.20501041356739066,0.7008858780614903,0.20501041356739066,0.37847837415320473
109,0.2069086581374591,0.7289213131839499,0.2069086581374591,0.2242834809796769,0.2069086581374591,0.11214174048983845,0.2069086581374591,0.5747264200104221,0.2069086581374591,0.7149035956227201,0.2069086581374591,0.37847837415320473
110,0.20880690270752753,0.7289213131839499,0.20880690270752753,0.2242834809796769,0.20880690270752753,0.11214174048983845,0.20880690270752753,0.5747264200104221,0.20880690270752753,0.7149035956227201,0.20880690270752753,0.39249609171443456
111,0.21070514727759596,0.7149035956227201,0.21070514727759596,0.2242834809796769,0.21070514727759596,0.11214174048983845,0.21070514727759596,0.5607087024491922,0.21070514727759596,0.7149035956227201,0.21070514727759596,0.39249609171443456
112,0.21260339184766439,0.7149035956227201,0.21260339184766439,0.21026576341844708,0.21260339184766439,0.11214174048983845,0.21260339184766439,0.5607087024491922,0.21260339184766439,0.7289213131839499,0.21260339184766439,0.4065138092756644
113,0.21450163641773282,0.7008858780614903,0.21450163641773282,0.21026576341844708,0.21450163641773282,0.11214174048983845,0.21450163641773282,0.5466909848879624,0.21450163641773282,0.7289213131839499,0.21450163641773282,0.4065138092756644
114,0.21639988098780125,0.7008858780614903,0.21639988098780125,0.21026576341844708,0.21639988098780125,0.11214174048983845,0.21639988098780125,0.5186555497655028,0.21639988098780125,0.7429390307451798,0.21639988098780125,0.42053152683689415
115,0.2182981255578697,0.6868681605002604,0.2182981255578697,0.21026576341844708,0.2182981255578697,0.11214174048983845,0.2182981255578697,0.4906201146430432,0.2182981255578697,0.7429390307451798,0.2182981255578697,0.42053152683689415
116,0.22019637012793813,0.6868681605002604,0.22019637012793813,0.2242834809796769,0.22019637012793813,0.11214174048983845,0.22019637012793813,0.4625846795205836,0.22019637012793813,0.7569567483064095,0.22019637012793813,0.42053152683689415
117,0.22209461469800656,0.6728504429390306,0.22209461469800656,0.2242834809796769,0.22209461469800656,0.11214174048983845,0.22209461469800656,0.4625846795205836,0.22209461469800656,0.7709744658676393,0.22209461469800656,0.42053152683689415
118,0.223992859268075,0.6728504429390306,0.223992859268075,0.2242834809796769,0.223992859268075,0.09812402292860864,0.223992859268075,0.4625846795205836,0.223992859268075,0.7709744658676393,0.223992859268075,0.42053152683689415
119,0.22589110383814343,0.6588327253778009,0.22589110383814343,0.2242834809796769,0.22589110383814343,0.09812402292860864,0.22589110383814343,0.4625846795205836,0.22589110383814343,0.7849921834288691,0.22589110383814343,0.434549244398124
120,0.22778934840821186,0.6588327253778009,0.22778934840821186,0.2242834809796769,0.22778934840821186,0.09812402292860864,0.22778934840821186,0.4625846795205836,0.22778934840821186,0.7849921834288691,0.22778934840821186,0.434549244398124
121,0.22968759297828029,0.6588327253778009,0.22968759297828029,0.2242834809796769,0.22968759297828029,0.09812402292860864,0.22968759297828029,0.4625846795205836,0.22968759297828029,0.7990099009900989,0.22968759297828029,0.434549244398124
122,0.23158583754834872,0.6448150078165711,0.23158583754834872,0.2242834809796769,0.23158583754834872,0.11214174048983845,0.23158583754834872,0.4625846795205836,0.23158583754834872,0.7990099009900989,0.23158583754834872,0.434549244398124
123,0.23348408211841715,0.6448150078165711,0.23348408211841715,0.2242834809796769,0.23348408211841715,0.11214174048983845,0.23348408211841715,0.4625846795205836,0.23348408211841715,0.7990099009900989,0.23348408211841715,0.4485669619593538
124,0.23538232668848558,0.6448150078165711,0.23538232668848558,0.2242834809796769,0.23538232668848558,0.11214174048983845,0.23538232668848558,0.4625846795205836,0.23538232668848558,0.7990099009900989,0.23538232668848558,0.4485669619593538
125,0.237280571258554,0.6307972902553413,0.237280571258554,0.2242834809796769,0.237280571258554,0.11214174048983845,0.237280571258554,0.4625846795205836,0.237280571258554,0.7990099009900989,0.237280571258554,0.4625846795205836
126,0.23917881582862244,0.6307972902553413,0.23917881582862244,0.2242834809796769,0.23917881582862244,0.11214174048983845,0.23917881582862244,0.4625846795205836,0.23917881582862244,0.7990099009900989,0.23917881582862244,0.4625846795205836
127,0.24107706039869087,0.6307972902553413,0.24107706039869087,0.2242834809796769,0.24107706039869087,0.11214174048983845,0.24107706039869087,0.4625846795205836,0.24107706039869087,0.7990099009900989,0.24107706039869087,0.4625846795205836
128,0.2429753049687593,0.6307972902553413,0.2429753049687593,0.2242834809796769,0.2429753049687593,0.11214174048983845,0.2429753049687593,0.4625846795205836,0.2429753049687593,0.7990099009900989,0.2429753049687593,0.4625846795205836
129,0.24487354953882773,0.6307972902553413,0.24487354953882773,0.2242834809796769,0.24487354953882773,0.11214174048983845,0.24487354953882773,0.4625846795205836,0.24487354953882773,0.7990099009900989,0.24487354953882773,0.4625846795205836
130,0.2467717941088962,0.6448150078165711,0.2467717941088962,0.2242834809796769,0.2467717941088962,0.11214174048983845,0.2467717941088962,0.4625846795205836,0.2467717941088962,0.8130276185513288,0.2467717941088962,0.4625846795205836
131,0.24867003867896462,0.6448150078165711,0.24867003867896462,0.2242834809796769,0.24867003867896462,0.11214174048983845,0.24867003867896462,0.4625846795205836,0.24867003867896462,0.8130276185513288,0.24867003867896462,0.4625846795205836
132,0.250568283249033,0.6448150078165711,0.250568283249033,0.2242834809796769,0.250568283249033,0.11214174048983845,0.250568283249033,0.4625846795205836,0.250568283249033,0.8130276185513288,0.250568283249033,0.4625846795205836
133,0.25246652781910145,0.6448150078165711,0.25246652781910145,0.2242834809796769,0.25246652781910145,0.11214174048983845,0.25246652781910145,0.4625846795205836,0.25246652781910145,0.8130276185513288,0.25246652781910145,0.4625846795205836
134,0.2543647723891699,0.6448150078165711,0.2543647723891699,0.2242834809796769,0.2543647723891699,0.11214174048983845,0.2543647723891699,0.4625846795205836,0.2543647723891699,0.8130276185513288,0.2543647723891699,0.4625846795205836
135,0.2562630169592383,0.6448150078165711,0.2562630169592383,0.2242834809796769,0.2562630169592383,0.11214174048983845,0.2562630169592383,0.4485669619593538,0.2562630169592383,0.8130276185513288,0.2562630169592383,0.4625846795205836
136,0.25816126152930674,0.6448150078165711,0.25816126152930674,0.2242834809796769,0.25816126152930674,0.11214174048983845,0.25816126152930674,0.4485669619593538,0.25816126152930674,0.8130276185513288,0.25816126152930674,0.4625846795205836
137,0.26005950609937517,0.6448150078165711,0.26005950609937517,0.2242834809796769,0.26005950609937517,0.11214174048983845,0.26005950609937517,0.4485669619593538,0.26005950609937517,0.8130276185513288,0.26005950609937517,0.4625846795205836
138,0.26195775066944366,0.6448150078165711,0.26195775066944366,0.2242834809796769,0.26195775066944366,0.11214174048983845,0.26195775066944366,0.4485669619593538,0.26195775066944366,0.8130276185513288,0.26195775066944366,0.4625846795205836
139,0.2638559952395121,0.6448150078165711,0.2638559952395121,0.2242834809796769,0.2638559952395121,0.11214174048983845,0.2638559952395121,0.4485669619593538,0.2638559952395121,0.8130276185513288,0.2638559952395121,0.4625846795205836
140,0.2657542398095805,0.6448150078165711,0.2657542398095805,0.2242834809796769,0.2657542398095805,0.11214174048983845,0.2657542398095805,0.434549244398124,0.2657542398095805,0.8270453361125586,0.2657542398095805,0.4625846795205836
141,0.26765248437964895,0.6448150078165711,0.26765248437964895,0.2242834809796769,0.26765248437964895,0.11214174048983845,0.26765248437964895,0.434549244398124,0.26765248437964895,0.8270453361125586,0.26765248437964895,0.4625846795205836
142,0.2695507289497174,0.6448150078165711,0.2695507289497174,0.2242834809796769,0.2695507289497174,0.11214174048983845,0.2695507289497174,0.434549244398124,0.2695507289497174,0.8270453361125586,0.2695507289497174,0.4625846795205836
143,0.2714489735197858,0.6448150078165711,0.2714489735197858,0.2242834809796769,0.2714489735197858,0.11214174048983845,0.2714489735197858,0.434549244398124,0.2714489735197858,0.8410630536737883,0.2714489735197858,0.4625846795205836
144,0.27334721808985424,0.6448150078165711,0.27334721808985424,0.21026576341844708,0.27334721808985424,0.11214174048983845,0.27334721808985424,0.434549244398124,0.27334721808985424,0.8410630536737883,0.27334721808985424,0.4625846795205836
145,0.27524546265992267,0.6448150078165711,0.27524546265992267,0.21026576341844708,0.27524546265992267,0.11214174048983845,0.27524546265992267,0.434549244398124,0.27524546265992267,0.8410630536737883,0.27524546265992267,0.4625846795205836
146,0.2771437072299911,0.6448150078165711,0.2771437072299911,0.21026576341844708,0.2771437072299911,0.11214174048983845,0.2771437072299911,0.434549244398124,0.2771437072299911,0.8410630536737883,0.2771437072299911,0.4625846795205836
147,0.27904195180005953,0.6448150078165711,0.27904195180005953,0.19624804585721728,0.27904195180005953,0.11214174048983845,0.27904195180005953,0.434549244398124,0.27904195180005953,0.8410630536737883,0.27904195180005953,0.4485669619593538
148,0.28094019637012796,0.6448150078165711,0.28094019637012796,0.19624804585721728,0.28094019637012796,0.11214174048983845,0.28094019637012796,0.434549244398124,0.28094019637012796,0.8550807712350181,0.28094019637012796,0.4485669619593538
149,0.2828384409401964,0.6448150078165711,0.2828384409401964,0.18223032829598748,0.2828384409401964,0.11214174048983845,0.2828384409401964,0.434549244398124,0.2828384409401964,0.8550807712350181,0.2828384409401964,0.4485669619593538
150,0.2847366855102648,0.6448150078165711,0.2847366855102648,0.18223032829598748,0.2847366855102648,0.09812402292860864,0.2847366855102648,0.434549244398124,0.2847366855102648,0.8550807712350181,0.2847366855102648,0.434549244398124
151,0.28663493008033325,0.6448150078165711,0.28663493008033325,0.18223032829598748,0.28663493008033325,0.09812402292860864,0.28663493008033325,0.434549244398124,0.28663493008033325,0.8550807712350181,0.28663493008033325,0.434549244398124
152,0.2885331746504017,0.6448150078165711,0.2885331746504017,0.18223032829598748,0.2885331746504017,0.09812402292860864,0.2885331746504017,0.434549244398124,0.2885331746504017,0.8550807712350181,0.2885331746504017,0.434549244398124
153,0.2904314192204701,0.6307972902553413,0.2904314192204701,0.18223032829598748,0.2904314192204701,0.08410630536737883,0.2904314192204701,0.434549244398124,0.2904314192204701,0.8550807712350181,0.2904314192204701,0.434549244398124
154,0.29232966379053854,0.6307972902553413,0.29232966379053854,0.18223032829598748,0.29232966379053854,0.08410630536737883,0.29232966379053854,0.434549244398124,0.29232966379053854,0.8550807712350181,0.29232966379053854,0.434549244398124
155,0.29422790836060697,0.6307972902553413,0.29422790836060697,0.18223032829598748,0.29422790836060697,0.07008858780614903,0.29422790836060697,0.434549244398124,0.29422790836060697,0.8550807712350181,0.29422790836060697,0.434549244398124
156,0.2961261529306754,0.6307972902553413,0.2961261529306754,0.18223032829598748,0.2961261529306754,0.07008858780614903,0.2961261529306754,0.434549244398124,0.2961261529306754,0.8550807712350181,0.2961261529306754,0.434549244398124
157,0.29802439750074383,0.6307972902553413,0.29802439750074383,0.18223032829598748,0.29802439750074383,0.07008858780614903,0.29802439750074383,0.434549244398124,0.29802439750074383,0.8550807712350181,0.29802439750074383,0.434549244398124
158,0.29992264207081226,0.6307972902553413,0.29992264207081226,0.18223032829598748,0.29992264207081226,0.07008858780614903,0.29992264207081226,0.434549244398124,0.29992264207081226,0.8550807712350181,0.29992264207081226,0.434549244398124
159,0.3018208866408807,0.6307972902553413,0.3018208866408807,0.18223032829598748,0.3018208866408807,0.07008858780614903,0.3018208866408807,0.434549244398124,0.3018208866408807,0.8550807712350181,0.3018208866408807,0.434549244398124
160,0.3037191312109491,0.6307972902553413,0.3037191312109491,0.18223032829598748,0.3037191312109491,0.07008858780614903,0.3037191312109491,0.434549244398124,0.3037191312109491,0.8550807712350181,0.3037191312109491,0.434549244398124
161,0.30561737578101755,0.6307972902553413,0.30561737578101755,0.18223032829598748,0.30561737578101755,0.07008858780614903,0.30561737578101755,0.434549244398124,0.30561737578101755,0.8550807712350181,0.30561737578101755,0.434549244398124
162,0.307515620351086,0.6307972902553413,0.307515620351086,0.18223032829598748,0.307515620351086,0.07008858780614903,0.307515620351086,0.434549244398124,0.307515620351086,0.8550807712350181,0.307515620351086,0.434549244398124
163,0.3094138649211544,0.6307972902553413,0.3094138649211544,0.18223032829598748,0.3094138649211544,0.07008858780614903,0.3094138649211544,0.434549244398124,0.3094138649211544,0.8550807712350181,0.3094138649211544,0.434549244398124
164,0.31131210949122284,0.6307972902553413,0.31131210949122284,0.18223032829598748,0.31131210949122284,0.07008858780614903,0.31131210949122284,0.434549244398124,0.31131210949122284,0.8550807712350181,0.31131210949122284,0.434549244398124
165,0.3132103540612913,0.6307972902553413,0.3132103540612913,0.18223032829598748,0.3132103540612913,0.07008858780614903,0.3132103540612913,0.434549244398124,0.3132103540612913,0.8550807712350181,0.3132103540612913,0.434549244398124
166,0.3151085986313597,0.6307972902553413,0.3151085986313597,0.16821261073475766,0.3151085986313597,0.07008858780614903,0.3151085986313597,0.434549244398124,0.3151085986313597,0.8550807712350181,0.3151085986313597,0.4485669619593538
167,0.31700684320142813,0.6307972902553413,0.31700684320142813,0.16821261073475766,0.31700684320142813,0.07008858780614903,0.31700684320142813,0.434549244398124,0.31700684320142813,0.8410630536737883,0.31700684320142813,0.4485669619593538
168,0.3189050877714966,0.6307972902553413,0.3189050877714966,0.15419489317352786,0.3189050877714966,0.07008858780614903,0.3189050877714966,0.434549244398124,0.3189050877714966,0.8410630536737883,0.3189050877714966,0.4485669619593538
169,0.32080333234156505,0.6307972902553413,0.32080333234156505,0.14017717561229806,0.32080333234156505,0.07008858780614903,0.32080333234156505,0.434549244398124,0.32080333234156505,0.8410630536737883,0.32080333234156505,0.4485669619593538
170,0.3227015769116335,0.6307972902553413,0.3227015769116335,0.12615945805106826,0.3227015769116335,0.07008858780614903,0.3227015769116335,0.4485669619593538,0.3227015769116335,0.8410630536737883,0.3227015769116335,0.4485669619593538
171,0.3245998214817019,0.6307972902553413,0.3245998214817019,0.14017717561229806,0.3245998214817019,0.07008858780614903,0.3245998214817019,0.4485669619593538,0.3245998214817019,0.8410630536737883,0.3245998214817019,0.4485669619593538
172,0.32649806605177034,0.6307972902553413,0.32649806605177034,0.15419489317352786,0.32649806605177034,0.056070870244919226,0.32649806605177034,0.4485669619593538,0.32649806605177034,0.8410630536737883,0.32649806605177034,0.4485669619593538
173,0.32839631062183877,0.6167795726941114,0.32839631062183877,0.16821261073475766,0.32839631062183877,0.056070870244919226,0.32839631062183877,0.4485669619593538,0.32839631062183877,0.8410630536737883,0.32839631062183877,0.4485669619593538
174,0.3302945551919072,0.6167795726941114,0.3302945551919072,0.18223032829598748,0.3302945551919072,0.042053152683689414,0.3302945551919072,0.4485669619593538,0.3302945551919072,0.8410630536737883,0.3302945551919072,0.4485669619593538
175,0.33219279976197563,0.6167795726941114,0.33219279976197563,0.18223032829598748,0.33219279976197563,0.028035435122459613,0.33219279976197563,0.4485669619593538,0.33219279976197563,0.8410630536737883,0.33219279976197563,0.4485669619593538
176,0.33409104433204406,0.6167795726941114,0.33409104433204406,0.19624804585721728,0.33409104433204406,0.014017717561229806,0.33409104433204406,0.4485669619593538,0.33409104433204406,0.8550807712350181,0.33409104433204406,0.4485669619593538
177,0.3359892889021125,0.6167795726941114,0.3359892889021125,0.19624804585721728,0.3359892889021125,0.028035435122459613,0.3359892889021125,0.4485669619593538,0.3359892889021125,0.8550807712350181,0.3359892889021125,0.4485669619593538
178,0.3378875334721809,0.6167795726941114,0.3378875334721809,0.19624804585721728,0.3378875334721809,0.042053152683689414,0.3378875334721809,0.4485669619593538,0.3378875334721809,0.8550807712350181,0.3378875334721809,0.4485669619593538
179,0.33978577804224935,0.6167795726941114,0.33978577804224935,0.21026576341844708,0.33978577804224935,0.056070870244919226,0.33978577804224935,0.4485669619593538,0.33978577804224935,0.8550807712350181,0.33978577804224935,0.4485669619593538
180,0.3416840226123178,0.6167795726941114,0.3416840226123178,0.21026576341844708,0.3416840226123178,0.07008858780614903,0.3416840226123178,0.4485669619593538,0.3416840226123178,0.8550807712350181,0.3416840226123178,0.4485669619593538
181,0.3435822671823862,0.6167795726941114,0.3435822671823862,0.21026576341844708,0.3435822671823862,0.07008858780614903,0.3435822671823862,0.4485669619593538,0.3435822671823862,0.8550807712350181,0.3435822671823862,0.4485669619593538
182,0.34548051175245464,0.6167795726941114,0.34548051175245464,0.21026576341844708,0.34548051175245464,0.08410630536737883,0.34548051175245464,0.4485669619593538,0.34548051175245464,0.8550807712350181,0.34548051175245464,0.4485669619593538
183,0.3473787563225231,0.6167795726941114,0.3473787563225231,0.21026576341844708,0.3473787563225231,0.08410630536737883,0.3473787563225231,0.4485669619593538,0.3473787563225231,0.8550807712350181,0.3473787563225231,0.4485669619593538
184,0.3492770008925915,0.6167795726941114,0.3492770008925915,0.21026576341844708,0.3492770008925915,0.08410630536737883,0.3492770008925915,0.4485669619593538,0.3492770008925915,0.8550807712350181,0.3492770008925915,0.4485669619593538
185,0.35117524546265994,0.6167795726941114,0.35117524546265994,0.21026576341844708,0.35117524546265994,0.09812402292860864,0.35117524546265994,0.4485669619593538,0.35117524546265994,0.8550807712350181,0.35117524546265994,0.4485669619593538
186,0.35307349003272837,0.6167795726941114,0.35307349003272837,0.21026576341844708,0.35307349003272837,0.09812402292860864,0.35307349003272837,0.4485669619593538,0.35307349003272837,0.8550807712350181,0.35307349003272837,0.4485669619593538
187,0.3549717346027968,0.6167795726941114,0.3549717346027968,0.21026576341844708,0.3549717346027968,0.09812402292860864,0.3549717346027968,0.4485669619593538,0.3549717346027968,0.8550807712350181,0.3549717346027968,0.434549244398124
188,0.3568699791728652,0.6167795726941114,0.3568699791728652,0.21026576341844708,0.3568699791728652,0.09812402292860864,0.3568699791728652,0.4485669619593538,0.3568699791728652,0.8550807712350181,0.3568699791728652,0.434549244398124
189,0.35876822374293366,0.6167795726941114,0.35876822374293366,0.21026576341844708,0.35876822374293366,0.09812402292860864,0.35876822374293366,0.4485669619593538,0.35876822374293366,0.8550807712350181,0.35876822374293366,0.42053152683689415
190,0.3606664683130021,0.6167795726941114,0.3606664683130021,0.21026576341844708,0.3606664683130021,0.09812402292860864,0.3606664683130021,0.4485669619593538,0.3606664683130021,0.8550807712350181,0.3606664683130021,0.42053152683689415
191,0.3625647128830705,0.6167795726941114,0.3625647128830705,0.21026576341844708,0.3625647128830705,0.09812402292860864,0.3625647128830705,0.4485669619593538,0.3625647128830705,0.8550807712350181,0.3625647128830705,0.42053152683689415
192,0.36446295745313895,0.6167795726941114,0.36446295745313895,0.21026576341844708,0.36446295745313895,0.09812402292860864,0.36446295745313895,0.4485669619593538,0.36446295745313895,0.8550807712350181,0.36446295745313895,0.42053152683689415
193,0.3663612020232074,0.6167795726941114,0.3663612020232074,0.21026576341844708,0.3663612020232074,0.09812402292860864,0.3663612020232074,0.4485669619593538,0.3663612020232074,0.8550807712350181,0.3663612020232074,0.42053152683689415
194,0.3682594465932758,0.6307972902553413,0.3682594465932758,0.21026576341844708,0.3682594465932758,0.09812402292860864,0.3682594465932758,0.4485669619593538,0.3682594465932758,0.8550807712350181,0.3682594465932758,0.42053152683689415
195,0.37015769116334424,0.6307972902553413,0.37015769116334424,0.21026576341844708,0.37015769116334424,0.09812402292860864,0.37015769116334424,0.4485669619593538,0.37015769116334424,0.8550807712350181,0.37015769116334424,0.42053152683689415
196,0.37205593573341267,0.6307972902553413,0.37205593573341267,0.21026576341844708,0.37205593573341267,0.09812402292860864,0.37205593573341267,0.4485669619593538,0.37205593573341267,0.8550807712350181,0.37205593573341267,0.42053152683689415
197,0.3739541803034811,0.6307972902553413,0.3739541803034811,0.21026576341844708,0.3739541803034811,0.09812402292860864,0.3739541803034811,0.4485669619593538,0.3739541803034811,0.8410630536737883,0.3739541803034811,0.42053152683689415
198,0.37585242487354953,0.6307972902553413,0.37585242487354953,0.21026576341844708,0.37585242487354953,0.09812402292860864,0.37585242487354953,0.4485669619593538,0.37585242487354953,0.8410630536737883,0.37585242487354953,0.42053152683689415
199,0.377750669443618,0.6307972902553413,0.377750669443618,0.21026576341844708,0.377750669443618,0.09812402292860864,0.377750669443618,0.434549244398124,0.377750669443618,0.8410630536737883,0.377750669443618,0.42053152683689415
200,0.37964891401368644,0.6307972902553413,0.37964891401368644,0.21026576341844708,0.37964891401368644,0.09812402292860864,0.37964891401368644,0.434549244398124,0.37964891401368644,0.8410630536737883,0.37964891401368644,0.42053152683689415
201,0.3815471585837549,0.6307972902553413,0.3815471585837549,0.21026576341844708,0.3815471585837549,0.09812402292860864,0.3815471585837549,0.434549244398124,0.3815471585837549,0.8410630536737883,0.3815471585837549,0.42053152683689415
202,0.3834454031538233,0.6307972902553413,0.3834454031538233,0.21026576341844708,0.3834454031538233,0.09812402292860864,0.3834454031538233,0.434549244398124,0.3834454031538233,0.8410630536737883,0.3834454031538233,0.42053152683689415
203,0.38534364772389174,0.6307972902553413,0.38534364772389174,0.19624804585721728,0.38534364772389174,0.09812402292860864,0.38534364772389174,0.434549244398124,0.38534364772389174,0.8410630536737883,0.38534364772389174,0.42053152683689415
204,0.38724189229396017,0.6307972902553413,0.38724189229396017,0.19624804585721728,0.38724189229396017,0.09812402292860864,0.38724189229396017,0.434549244398124,0.38724189229396017,0.8410630536737883,0.38724189229396017,0.42053152683689415
205,0.3891401368640286,0.6307972902553413,0.3891401368640286,0.18223032829598748,0.3891401368640286,0.09812402292860864,0.3891401368640286,0.434549244398124,0.3891401368640286,0.8410630536737883,0.3891401368640286,0.42053152683689415
206,0.391038381434097,0.6307972902553413,0.391038381434097,0.18223032829598748,0.391038381434097,0.09812402292860864,0.391038381434097,0.434549244398124,0.391038381434097,0.8410630536737883,0.391038381434097,0.42053152683689415
207,0.39293662600416546,0.6307972902553413,0.39293662600416546,0.18223032829598748,0.39293662600416546,0.09812402292860864,0.39293662600416546,0.434549244398124,0.39293662600416546,0.8410630536737883,0.39293662600416546,0.42053152683689415
208,0.3948348705742339,0.6307972902553413,0.3948348705742339,0.18223032829598748,0.3948348705742339,0.09812402292860864,0.3948348705742339,0.434549244398124,0.3948348705742339,0.8410630536737883,0.3948348705742339,0.42053152683689415
209,0.3967331151443023,0.6307972902553413,0.3967331151443023,0.18223032829598748,0.3967331151443023,0.08410630536737883,0.3967331151443023,0.434549244398124,0.3967331151443023,0.8410630536737883,0.3967331151443023,0.42053152683689415
210,0.39863135971437075,0.6307972902553413,0.39863135971437075,0.18223032829598748,0.39863135971437075,0.08410630536737883,0.39863135971437075,0.434549244398124,0.39863135971437075,0.8410630536737883,0.39863135971437075,0.42053152683689415
211,0.4005296042844392,0.6307972902553413,0.4005296042844392,0.18223032829598748,0.4005296042844392,0.07008858780614903,0.4005296042844392,0.434549244398124,0.4005296042844392,0.8410630536737883,0.4005296042844392,0.42053152683689415
212,0.4024278488545076,0.6307972902553413,0.4024278488545076,0.18223032829598748,0.4024278488545076,0.07008858780614903,0.4024278488545076,0.434549244398124,0.4024278488545076,0.8410630536737883,0.4024278488545076,0.42053152683689415
213,0.40432609342457604,0.6307972902553413,0.40432609342457604,0.18223032829598748,0.40432609342457604,0.07008858780614903,0.40432609342457604,0.434549244398124,0.40432609342457604,0.8410630536737883,0.40432609342457604,0.42053152683689415
214,0.40622433799464447,0.6307972902553413,0.40622433799464447,0.18223032829598748,0.40622433799464447,0.07008858780614903,0.40622433799464447,0.434549244398124,0.40622433799464447,0.8410630536737883,0.40622433799464447,0.42053152683689415
215,0.4081225825647129,0.6167795726941114,0.4081225825647129,0.18223032829598748,0.4081225825647129,0.07008858780614903,0.4081225825647129,0.434549244398124,0.4081225825647129,0.8410630536737883,0.4081225825647129,0.42053152683689415
216,0.41002082713478133,0.6167795726941114,0.41002082713478133,0.18223032829598748,0.41002082713478133,0.07008858780614903,0.41002082713478133,0.434549244398124,0.41002082713478133,0.8410630536737883,0.41002082713478133,0.42053152683689415
217,0.41191907170484976,0.6167795726941114,0.41191907170484976,0.18223032829598748,0.41191907170484976,0.07008858780614903,0.41191907170484976,0.434549244398124,0.41191907170484976,0.8410630536737883,0.41191907170484976,0.4065138092756644
218,0.4138173162749182,0.6167795726941114,0.4138173162749182,0.18223032829598748,0.4138173162749182,0.07008858780614903,0.4138173162749182,0.434549244398124,0.4138173162749182,0.8410630536737883,0.4138173162749182,0.4065138092756644
219,0.4157155608449866,0.6027618551328816,0.4157155608449866,0.18223032829598748,0.4157155608449866,0.07008858780614903,0.4157155608449866,0.434549244398124,0.4157155608449866,0.8410630536737883,0.4157155608449866,0.39249609171443456
220,0.41761380541505505,0.6027618551328816,0.41761380541505505,0.18223032829598748,0.41761380541505505,0.07008858780614903,0.41761380541505505,0.434549244398124,0.41761380541505505,0.8410630536737883,0.41761380541505505,0.39249609171443456
221,0.4195120499851235,0.6027618551328816,0.4195120499851235,0.18223032829598748,0.4195120499851235,0.07008858780614903,0.4195120499851235,0.434549244398124,0.4195120499851235,0.8410630536737883,0.4195120499851235,0.37847837415320473
222,0.4214102945551919,0.6027618551328816,0.4214102945551919,0.18223032829598748,0.4214102945551919,0.07008858780614903,0.4214102945551919,0.434549244398124,0.4214102945551919,0.8410630536737883,0.4214102945551919,0.37847837415320473
223,0.42330853912526034,0.6027618551328816,0.42330853912526034,0.18223032829598748,0.42330853912526034,0.07008858780614903,0.42330853912526034,0.434549244398124,0.42330853912526034,0.8410630536737883,0.42330853912526034,0.37847837415320473
224,0.42520678369532877,0.6027618551328816,0.42520678369532877,0.16821261073475766,0.42520678369532877,0.07008858780614903,0.42520678369532877,0.434549244398124,0.42520678369532877,0.8410630536737883,0.42520678369532877,0.4065138092756644
225,0.4271050282653972,0.6027618551328816,0.4271050282653972,0.16821261073475766,0.4271050282653972,0.07008858780614903,0.4271050282653972,0.434549244398124,0.4271050282653972,0.8410630536737883,0.4271050282653972,0.434549244398124
226,0.42900327283546563,0.6027618551328816,0.42900327283546563,0.18223032829598748,0.42900327283546563,0.07008858780614903,0.42900327283546563,0.434549244398124,0.42900327283546563,0.8410630536737883,0.42900327283546563,0.4485669619593538
227,0.43090151740553406,0.6167795726941114,0.43090151740553406,0.18223032829598748,0.43090151740553406,0.07008858780614903,0.43090151740553406,0.434549244398124,0.43090151740553406,0.8270453361125586,0.43090151740553406,0.4625846795205836
228,0.4327997619756025,0.6167795726941114,0.4327997619756025,0.19624804585721728,0.4327997619756025,0.07008858780614903,0.4327997619756025,0.434549244398124,0.4327997619756025,0.8270453361125586,0.4327997619756025,0.4766023970818134
229,0.434698006545671,0.6167795726941114,0.434698006545671,0.19624804585721728,0.434698006545671,0.07008858780614903,0.434698006545671,0.434549244398124,0.434698006545671,0.8270453361125586,0.434698006545671,0.4766023970818134
230,0.4365962511157394,0.6167795726941114,0.4365962511157394,0.19624804585721728,0.4365962511157394,0.056070870244919226,0.4365962511157394,0.434549244398124,0.4365962511157394,0.8130276185513288,0.4365962511157394,0.4766023970818134
231,0.43849449568580784,0.6167795726941114,0.43849449568580784,0.19624804585721728,0.43849449568580784,0.056070870244919226,0.43849449568580784,0.434549244398124,0.43849449568580784,0.8270453361125586,0.43849449568580784,0.4766023970818134
232,0.44039274025587627,0.6167795726941114,0.44039274025587627,0.19624804585721728,0.44039274025587627,0.07008858780614903,0.44039274025587627,0.434549244398124,0.44039274025587627,0.8270453361125586,0.44039274025587627,0.4766023970818134
233,0.4422909848259447,0.6167795726941114,0.4422909848259447,0.19624804585721728,0.4422909848259447,0.07008858780614903,0.4422909848259447,0.434549244398124,0.4422909848259447,0.8270453361125586,0.4422909848259447,0.4766023970818134
234,0.44418922939601313,0.6167795726941114,0.44418922939601313,0.21026576341844708,0.44418922939601313,0.08410630536737883,0.44418922939601313,0.434549244398124,0.44418922939601313,0.8410630536737883,0.44418922939601313,0.4906201146430432
235,0.44608747396608156,0.6167795726941114,0.44608747396608156,0.21026576341844708,0.44608747396608156,0.08410630536737883,0.44608747396608156,0.434549244398124,0.44608747396608156,0.8410630536737883,0.44608747396608156,0.4906201146430432
236,0.44798571853615,0.6167795726941114,0.44798571853615,0.21026576341844708,0.44798571853615,0.08410630536737883,0.44798571853615,0.434549244398124,0.44798571853615,0.8410630536737883,0.44798571853615,0.4906201146430432
237,0.4498839631062184,0.6167795726941114,0.4498839631062184,0.21026576341844708,0.4498839631062184,0.08410630536737883,0.4498839631062184,0.434549244398124,0.4498839631062184,0.8410630536737883,0.4498839631062184,0.4906201146430432
238,0.45178220767628685,0.6167795726941114,0.45178220767628685,0.21026576341844708,0.45178220767628685,0.08410630536737883,0.45178220767628685,0.4485669619593538,0.45178220767628685,0.8410630536737883,0.45178220767628685,0.4906201146430432
239,0.4536804522463553,0.6167795726941114,0.4536804522463553,0.21026576341844708,0.4536804522463553,0.08410630536737883,0.4536804522463553,0.4485669619593538,0.4536804522463553,0.8410630536737883,0.4536804522463553,0.4906201146430432
240,0.4555786968164237,0.6167795726941114,0.4555786968164237,0.21026576341844708,0.4555786968164237,0.09812402292860864,0.4555786968164237,0.4485669619593538,0.4555786968164237,0.8410630536737883,0.4555786968164237,0.4906201146430432
241,0.45747694138649214,0.6167795726941114,0.45747694138649214,0.21026576341844708,0.45747694138649214,0.09812402292860864,0.45747694138649214,0.4485669619593538,0.45747694138649214,0.8410630536737883,0.45747694138649214,0.4906201146430432
242,0.45937518595656057,0.6167795726941114,0.45937518595656057,0.21026576341844708,0.45937518595656057,0.09812402292860864,0.45937518595656057,0.4485669619593538,0.45937518595656057,0.8410630536737883,0.45937518595656057,0.4906201146430432
243,0.461273430526629,0.6167795726941114,0.461273430526629,0.21026576341844708,0.461273430526629,0.09812402292860864,0.461273430526629,0.4485669619593538,0.461273430526629,0.8410630536737883,0.461273430526629,0.4906201146430432
244,0.46317167509669743,0.6167795726941114,0.46317167509669743,0.21026576341844708,0.46317167509669743,0.09812402292860864,0.46317167509669743,0.4485669619593538,0.46317167509669743,0.8410630536737883,0.46317167509669743,0.4906201146430432
245,0.46506991966676586,0.6167795726941114,0.46506991966676586,0.21026576341844708,0.46506991966676586,0.09812402292860864,0.46506991966676586,0.4485669619593538,0.46506991966676586,0.8410630536737883,0.46506991966676586,0.4906201146430432
246,0.4669681642368343,0.6167795726941114,0.4669681642368343,0.21026576341844708,0.4669681642368343,0.09812402292860864,0.4669681642368343,0.4485669619593538,0.4669681642368343,0.8410630536737883,0.4669681642368343,0.504637832204273
247,0.4688664088069027,0.6167795726941114,0.4688664088069027,0.21026576341844708,0.4688664088069027,0.09812402292860864,0.4688664088069027,0.4485669619593538,0.4688664088069027,0.8410630536737883,0.4688664088069027,0.504637832204273
248,0.47076465337697115,0.6167795726941114,0.47076465337697115,0.21026576341844708,0.47076465337697115,0.09812402292860864,0.47076465337697115,0.4485669619593538,0.47076465337697115,0.8410630536737883,0.47076465337697115,0.504637832204273
249,0.4726628979470396,0.6167795726941114,0.4726628979470396,0.21026576341844708,0.4726628979470396,0.09812402292860864,0.4726628979470396,0.4485669619593538,0.4726628979470396,0.8410630536737883,0.4726628979470396,0.504637832204273
250,0.474561142517108,0.6167795726941114,0.474561142517108,0.21026576341844708,0.474561142517108,0.09812402292860864,0.474561142517108,0.4485669619593538,0.474561142517108,0.8410630536737883,0.474561142517108,0.504637832204273
251,0.47645938708717644,0.6167795726941114,0.47645938708717644,0.21026576341844708,0.47645938708717644,0.09812402292860864,0.47645938708717644,0.4485669619593538,0.47645938708717644,0.8410630536737883,0.47645938708717644,0.504637832204273
252,0.4783576316572449,0.6167795726941114,0.4783576316572449,0.21026576341844708,0.4783576316572449,0.09812402292860864,0.4783576316572449,0.4485669619593538,0.4783576316572449,0.8410630536737883,0.4783576316572449,0.504637832204273
253,0.4802558762273133,0.6167795726941114,0.4802558762273133,0.21026576341844708,0.4802558762273133,0.09812402292860864,0.4802558762273133,0.4485669619593538,0.4802558762273133,0.8410630536737883,0.4802558762273133,0.504637832204273
254,0.48215412079738174,0.6167795726941114,0.48215412079738174,0.21026576341844708,0.48215412079738174,0.09812402292860864,0.48215412079738174,0.4485669619593538,0.48215412079738174,0.8550807712350181,0.48215412079738174,0.504637832204273
255,0.48405236536745017,0.6167795726941114,0.48405236536745017,0.21026576341844708,0.48405236536745017,0.09812402292860864,0.48405236536745017,0.4485669619593538,0.48405236536745017,0.8550807712350181,0.48405236536745017,0.504637832204273
256,0.4859506099375186,0.6167795726941114,0.4859506099375186,0.21026576341844708,0.4859506099375186,0.09812402292860864,0.4859506099375186,0.4485669619593538,0.4859506099375186,0.8550807712350181,0.4859506099375186,0.504637832204273
257,0.487848854507587,0.6167795726941114,0.487848854507587,0.21026576341844708,0.487848854507587,0.09812402292860864,0.487848854507587,0.4485669619593538,0.487848854507587,0.8550807712350181,0.487848854507587,0.504637832204273
258,0.48974709907765546,0.6167795726941114,0.48974709907765546,0.21026576341844708,0.48974709907765546,0.09812402292860864,0.48974709907765546,0.4485669619593538,0.48974709907765546,0.8550807712350181,0.48974709907765546,0.504637832204273
259,0.4916453436477239,0.6167795726941114,0.4916453436477239,0.19624804585721728,0.4916453436477239,0.09812402292860864,0.4916453436477239,0.4485669619593538,0.4916453436477239,0.8550807712350181,0.4916453436477239,0.504637832204273
260,0.4935435882177924,0.6167795726941114,0.4935435882177924,0.19624804585721728,0.4935435882177924,0.09812402292860864,0.4935435882177924,0.4485669619593538,0.4935435882177924,0.8550807712350181,0.4935435882177924,0.504637832204273
261,0.4954418327878608,0.6167795726941114,0.4954418327878608,0.19624804585721728,0.4954418327878608,0.09812402292860864,0.4954418327878608,0.4485669619593538,0.4954418327878608,0.8550807712350181,0.4954418327878608,0.504637832204273
262,0.49734007735792923,0.6167795726941114,0.49734007735792923,0.19624804585721728,0.49734007735792923,0.09812402292860864,0.49734007735792923,0.4485669619593538,0.49734007735792923,0.869098488796248,0.49734007735792923,0.504637832204273
263,0.49923832192799766,0.6167795726941114,0.49923832192799766,0.19624804585721728,0.49923832192799766,0.09812402292860864,0.49923832192799766,0.434549244398124,0.49923832192799766,0.869098488796248,0.49923832192799766,0.504637832204273
264,0.501136566498066,0.6167795726941114,0.501136566498066,0.19624804585721728,0.501136566498066,0.09812402292860864,0.501136566498066,0.434549244398124,0.501136566498066,0.8831162063574778,0.501136566498066,0.504637832204273
265,0.5030348110681345,0.6167795726941114,0.5030348110681345,0.19624804585721728,0.5030348110681345,0.08410630536737883,0.5030348110681345,0.434549244398124,0.5030348110681345,0.8831162063574778,0.5030348110681345,0.504637832204273
266,0.5049330556382029,0.6167795726941114,0.5049330556382029,0.19624804585721728,0.5049330556382029,0.08410630536737883,0.5049330556382029,0.434549244398124,0.5049330556382029,0.8831162063574778,0.5049330556382029,0.504637832204273
267,0.5068313002082714,0.6167795726941114,0.5068313002082714,0.19624804585721728,0.5068313002082714,0.08410630536737883,0.5068313002082714,0.434549244398124,0.5068313002082714,0.8831162063574778,0.5068313002082714,0.504637832204273
268,0.5087295447783398,0.6167795726941114,0.5087295447783398,0.19624804585721728,0.5087295447783398,0.08410630536737883,0.5087295447783398,0.434549244398124,0.5087295447783398,0.8831162063574778,0.5087295447783398,0.504637832204273
269,0.5106277893484082,0.6167795726941114,0.5106277893484082,0.19624804585721728,0.5106277893484082,0.08410630536737883,0.5106277893484082,0.434549244398124,0.5106277893484082,0.8831162063574778,0.5106277893484082,0.504637832204273
270,0.5125260339184766,0.6167795726941114,0.5125260339184766,0.19624804585721728,0.5125260339184766,0.08410630536737883,0.5125260339184766,0.434549244398124,0.5125260339184766,0.8831162063574778,0.5125260339184766,0.4906201146430432
271,0.5144242784885451,0.6167795726941114,0.5144242784885451,0.19624804585721728,0.5144242784885451,0.08410630536737883,0.5144242784885451,0.434549244398124,0.5144242784885451,0.8831162063574778,0.5144242784885451,0.4906201146430432
272,0.5163225230586135,0.6167795726941114,0.5163225230586135,0.19624804585721728,0.5163225230586135,0.08410630536737883,0.5163225230586135,0.434549244398124,0.5163225230586135,0.8831162063574778,0.5163225230586135,0.4906201146430432
273,0.518220767628682,0.6167795726941114,0.518220767628682,0.19624804585721728,0.518220767628682,0.08410630536737883,0.518220767628682,0.434549244398124,0.518220767628682,0.8831162063574778,0.518220767628682,0.4906201146430432
274,0.5201190121987503,0.6167795726941114,0.5201190121987503,0.18223032829598748,0.5201190121987503,0.08410630536737883,0.5201190121987503,0.434549244398124,0.5201190121987503,0.8831162063574778,0.5201190121987503,0.4906201146430432
275,0.5220172567688188,0.6167795726941114,0.5220172567688188,0.18223032829598748,0.5220172567688188,0.08410630536737883,0.5220172567688188,0.434549244398124,0.5220172567688188,0.8831162063574778,0.5220172567688188,0.4906201146430432
276,0.5239155013388873,0.6167795726941114,0.5239155013388873,0.18223032829598748,0.5239155013388873,0.08410630536737883,0.5239155013388873,0.434549244398124,0.5239155013388873,0.8831162063574778,0.5239155013388873,0.4906201146430432
277,0.5258137459089557,0.6167795726941114,0.5258137459089557,0.18223032829598748,0.5258137459089557,0.08410630536737883,0.5258137459089557,0.434549244398124,0.5258137459089557,0.8831162063574778,0.5258137459089557,0.4906201146430432
278,0.5277119904790242,0.6167795726941114,0.5277119904790242,0.18223032829598748,0.5277119904790242,0.08410630536737883,0.5277119904790242,0.434549244398124,0.5277119904790242,0.8831162063574778,0.5277119904790242,0.4906201146430432
279,0.5296102350490925,0.6167795726941114,0.5296102350490925,0.16821261073475766,0.5296102350490925,0.08410630536737883,0.5296102350490925,0.42053152683689415,0.5296102350490925,0.8831162063574778,0.5296102350490925,0.4906201146430432
280,0.531508479619161,0.6027618551328816,0.531508479619161,0.16821261073475766,0.531508479619161,0.07008858780614903,0.531508479619161,0.42053152683689415,0.531508479619161,0.8831162063574778,0.531508479619161,0.4906201146430432
281,0.5334067241892294,0.6027618551328816,0.5334067241892294,0.15419489317352786,0.5334067241892294,0.07008858780614903,0.5334067241892294,0.42053152683689415,0.5334067241892294,0.8831162063574778,0.5334067241892294,0.4906201146430432
282,0.5353049687592979,0.6027618551328816,0.5353049687592979,0.14017717561229806,0.5353049687592979,0.07008858780614903,0.5353049687592979,0.4065138092756644,0.5353049687592979,0.8831162063574778,0.5353049687592979,0.4906201146430432
283,0.5372032133293663,0.6027618551328816,0.5372032133293663,0.15419489317352786,0.5372032133293663,0.07008858780614903,0.5372032133293663,0.4065138092756644,0.5372032133293663,0.8831162063574778,0.5372032133293663,0.4766023970818134
284,0.5391014578994348,0.6027618551328816,0.5391014578994348,0.15419489317352786,0.5391014578994348,0.07008858780614903,0.5391014578994348,0.4065138092756644,0.5391014578994348,0.869098488796248,0.5391014578994348,0.4766023970818134
285,0.5409997024695031,0.6027618551328816,0.5409997024695031,0.16821261073475766,0.5409997024695031,0.056070870244919226,0.5409997024695031,0.4065138092756644,0.5409997024695031,0.869098488796248,0.5409997024695031,0.4766023970818134
286,0.5428979470395716,0.5887441375716519,0.5428979470395716,0.16821261073475766,0.5428979470395716,0.056070870244919226,0.5428979470395716,0.4065138092756644,0.5428979470395716,0.8550807712350181,0.5428979470395716,0.4766023970818134
287,0.54479619160964,0.5887441375716519,0.54479619160964,0.16821261073475766,0.54479619160964,0.042053152683689414,0.54479619160964,0.4065138092756644,0.54479619160964,0.8550807712350181,0.54479619160964,0.4766023970818134
288,0.5466944361797085,0.5887441375716519,0.5466944361797085,0.16821261073475766,0.5466944361797085,0.028035435122459613,0.5466944361797085,0.4065138092756644,0.5466944361797085,0.8550807712350181,0.5466944361797085,0.4766023970818134
289,0.5485926807497769,0.5887441375716519,0.5485926807497769,0.18223032829598748,0.5485926807497769,0.042053152683689414,0.5485926807497769,0.4065138092756644,0.5485926807497769,0.8550807712350181,0.5485926807497769,0.4766023970818134
290,0.5504909253198453,0.5887441375716519,0.5504909253198453,0.18223032829598748,0.5504909253198453,0.042053152683689414,0.5504909253198453,0.4065138092756644,0.5504909253198453,0.8550807712350181,0.5504909253198453,0.4766023970818134
291,0.5523891698899137,0.6027618551328816,0.5523891698899137,0.18223032829598748,0.5523891698899137,0.056070870244919226,0.5523891698899137,0.4065138092756644,0.5523891698899137,0.8550807712350181,0.5523891698899137,0.4766023970818134
292,0.5542874144599822,0.6027618551328816,0.5542874144599822,0.18223032829598748,0.5542874144599822,0.056070870244919226,0.5542874144599822,0.4065138092756644,0.5542874144599822,0.8550807712350181,0.5542874144599822,0.4906201146430432
293,0.5561856590300506,0.6027618551328816,0.5561856590300506,0.18223032829598748,0.5561856590300506,0.056070870244919226,0.5561856590300506,0.4065138092756644,0.5561856590300506,0.8550807712350181,0.5561856590300506,0.4906201146430432
294,0.5580839036001191,0.6027618551328816,0.5580839036001191,0.18223032829598748,0.5580839036001191,0.056070870244919226,0.5580839036001191,0.4065138092756644,0.5580839036001191,0.8550807712350181,0.5580839036001191,0.4906201146430432
295,0.5599821481701874,0.6027618551328816,0.5599821481701874,0.18223032829598748,0.5599821481701874,0.07008858780614903,0.5599821481701874,0.4065138092756644,0.5599821481701874,0.8550807712350181,0.5599821481701874,0.4906201146430432
296,0.5618803927402559,0.6027618551328816,0.5618803927402559,0.18223032829598748,0.5618803927402559,0.07008858780614903,0.5618803927402559,0.4065138092756644,0.5618803927402559,0.8550807712350181,0.5618803927402559,0.4906201146430432
297,0.5637786373103243,0.6027618551328816,0.5637786373103243,0.18223032829598748,0.5637786373103243,0.07008858780614903,0.5637786373103243,0.4065138092756644,0.5637786373103243,0.8550807712350181,0.5637786373103243,0.4906201146430432
298,0.5656768818803928,0.6027618551328816,0.5656768818803928,0.18223032829598748,0.5656768818803928,0.07008858780614903,0.5656768818803928,0.4065138092756644,0.5656768818803928,0.8550807712350181,0.5656768818803928,0.504637832204273
299,0.5675751264504612,0.6027618551328816,0.5675751264504612,0.18223032829598748,0.5675751264504612,0.07008858780614903,0.5675751264504612,0.4065138092756644,0.5675751264504612,0.8550807712350181,0.5675751264504612,0.504637832204273
300,0.5694733710205296,0.6027618551328816,0.5694733710205296,0.18223032829598748,0.5694733710205296,0.07008858780614903,0.5694733710205296,0.4065138092756644,0.5694733710205296,0.8550807712350181,0.5694733710205296,0.504637832204273
301,0.571371615590598,0.6167795726941114,0.571371615590598,0.18223032829598748,0.571371615590598,0.07008858780614903,0.571371615590598,0.4065138092756644,0.571371615590598,0.8550807712350181,0.571371615590598,0.504637832204273
302,0.5732698601606665,0.6167795726941114,0.5732698601606665,0.18223032829598748,0.5732698601606665,0.07008858780614903,0.5732698601606665,0.4065138092756644,0.5732698601606665,0.8550807712350181,0.5732698601606665,0.504637832204273
303,0.5751681047307349,0.6167795726941114,0.5751681047307349,0.18223032829598748,0.5751681047307349,0.07008858780614903,0.5751681047307349,0.4065138092756644,0.5751681047307349,0.8550807712350181,0.5751681047307349,0.504637832204273
304,0.5770663493008034,0.6167795726941114,0.5770663493008034,0.18223032829598748,0.5770663493008034,0.07008858780614903,0.5770663493008034,0.4065138092756644,0.5770663493008034,0.8550807712350181,0.5770663493008034,0.504637832204273
305,0.5789645938708718,0.6167795726941114,0.5789645938708718,0.18223032829598748,0.5789645938708718,0.07008858780614903,0.5789645938708718,0.4065138092756644,0.5789645938708718,0.8550807712350181,0.5789645938708718,0.504637832204273
306,0.5808628384409402,0.6167795726941114,0.5808628384409402,0.18223032829598748,0.5808628384409402,0.07008858780614903,0.5808628384409402,0.4065138092756644,0.5808628384409402,0.8550807712350181,0.5808628384409402,0.504637832204273
307,0.5827610830110087,0.6167795726941114,0.5827610830110087,0.18223032829598748,0.5827610830110087,0.07008858780614903,0.5827610830110087,0.4065138092756644,0.5827610830110087,0.8550807712350181,0.5827610830110087,0.504637832204273
308,0.5846593275810771,0.6167795726941114,0.5846593275810771,0.18223032829598748,0.5846593275810771,0.07008858780614903,0.5846593275810771,0.39249609171443456,0.5846593275810771,0.8550807712350181,0.5846593275810771,0.504637832204273
309,0.5865575721511456,0.6167795726941114,0.5865575721511456,0.18223032829598748,0.5865575721511456,0.07008858780614903,0.5865575721511456,0.39249609171443456,0.5865575721511456,0.8550807712350181,0.5865575721511456,0.504637832204273
310,0.5884558167212139,0.6167795726941114,0.5884558167212139,0.18223032829598748,0.5884558167212139,0.07008858780614903,0.5884558167212139,0.39249609171443456,0.5884558167212139,0.8550807712350181,0.5884558167212139,0.504637832204273
311,0.5903540612912824,0.6167795726941114,0.5903540612912824,0.16821261073475766,0.5903540612912824,0.07008858780614903,0.5903540612912824,0.39249609171443456,0.5903540612912824,0.8550807712350181,0.5903540612912824,0.504637832204273
312,0.5922523058613508,0.6307972902553413,0.5922523058613508,0.16821261073475766,0.5922523058613508,0.07008858780614903,0.5922523058613508,0.39249609171443456,0.5922523058613508,0.8550807712350181,0.5922523058613508,0.504637832204273
313,0.5941505504314193,0.6307972902553413,0.5941505504314193,0.16821261073475766,0.5941505504314193,0.07008858780614903,0.5941505504314193,0.39249609171443456,0.5941505504314193,0.8550807712350181,0.5941505504314193,0.504637832204273
314,0.5960487950014877,0.6307972902553413,0.5960487950014877,0.16821261073475766,0.5960487950014877,0.07008858780614903,0.5960487950014877,0.37847837415320473,0.5960487950014877,0.8550807712350181,0.5960487950014877,0.504637832204273
315,0.5979470395715561,0.6307972902553413,0.5979470395715561,0.16821261073475766,0.5979470395715561,0.07008858780614903,0.5979470395715561,0.39249609171443456,0.5979470395715561,0.869098488796248,0.5979470395715561,0.504637832204273
316,0.5998452841416245,0.6307972902553413,0.5998452841416245,0.15419489317352786,0.5998452841416245,0.07008858780614903,0.5998452841416245,0.39249609171443456,0.5998452841416245,0.869098488796248,0.5998452841416245,0.504637832204273
317,0.601743528711693,0.6307972902553413,0.601743528711693,0.15419489317352786,0.601743528711693,0.056070870244919226,0.601743528711693,0.4065138092756644,0.601743528711693,0.8831162063574778,0.601743528711693,0.504637832204273
318,0.6036417732817614,0.6307972902553413,0.6036417732817614,0.15419489317352786,0.6036417732817614,0.056070870244919226,0.6036417732817614,0.4065138092756644,0.6036417732817614,0.8971339239187076,0.6036417732817614,0.504637832204273
319,0.6055400178518299,0.6307972902553413,0.6055400178518299,0.15419489317352786,0.6055400178518299,0.056070870244919226,0.6055400178518299,0.42053152683689415,0.6055400178518299,0.9111516414799373,0.6055400178518299,0.504637832204273
320,0.6074382624218982,0.6307972902553413,0.6074382624218982,0.15419489317352786,0.6074382624218982,0.056070870244919226,0.6074382624218982,0.42053152683689415,0.6074382624218982,0.939187076602397,0.6074382624218982,0.504637832204273
321,0.6093365069919667,0.6307972902553413,0.6093365069919667,0.15419489317352786,0.6093365069919667,0.056070870244919226,0.6093365069919667,0.42053152683689415,0.6093365069919667,0.9532047941636268,0.6093365069919667,0.504637832204273
322,0.6112347515620351,0.6307972902553413,0.6112347515620351,0.15419489317352786,0.6112347515620351,0.042053152683689414,0.6112347515620351,0.42053152683689415,0.6112347515620351,0.9672225117248566,0.6112347515620351,0.504637832204273
323,0.6131329961321036,0.6307972902553413,0.6131329961321036,0.15419489317352786,0.6131329961321036,0.042053152683689414,0.6131329961321036,0.42053152683689415,0.6131329961321036,0.9672225117248566,0.6131329961321036,0.504637832204273
324,0.615031240702172,0.6307972902553413,0.615031240702172,0.15419489317352786,0.615031240702172,0.042053152683689414,0.615031240702172,0.42053152683689415,0.615031240702172,0.9672225117248566,0.615031240702172,0.504637832204273
325,0.6169294852722405,0.6307972902553413,0.6169294852722405,0.15419489317352786,0.6169294852722405,0.042053152683689414,0.6169294852722405,0.42053152683689415,0.6169294852722405,0.9672225117248566,0.6169294852722405,0.504637832204273
326,0.6188277298423088,0.6307972902553413,0.6188277298423088,0.15419489317352786,0.6188277298423088,0.042053152683689414,0.6188277298423088,0.42053152683689415,0.6188277298423088,0.9672225117248566,0.6188277298423088,0.504637832204273
327,0.6207259744123773,0.6307972902553413,0.6207259744123773,0.15419489317352786,0.6207259744123773,0.042053152683689414,0.6207259744123773,0.42053152683689415,0.6207259744123773,0.9672225117248566,0.6207259744123773,0.504637832204273
328,0.6226242189824457,0.6307972902553413,0.6226242189824457,0.15419489317352786,0.6226242189824457,0.042053152683689414,0.6226242189824457,0.42053152683689415,0.6226242189824457,0.9672225117248566,0.6226242189824457,0.504637832204273
329,0.6245224635525142,0.6307972902553413,0.6245224635525142,0.15419489317352786,0.6245224635525142,0.042053152683689414,0.6245224635525142,0.42053152683689415,0.6245224635525142,0.9672225117248566,0.6245224635525142,0.504637832204273
330,0.6264207081225825,0.6307972902553413,0.6264207081225825,0.15419489317352786,0.6264207081225825,0.042053152683689414,0.6264207081225825,0.42053152683689415,0.6264207081225825,0.9672225117248566,0.6264207081225825,0.504637832204273
331,0.628318952692651,0.6307972902553413,0.628318952692651,0.14017717561229806,0.628318952692651,0.042053152683689414,0.628318952692651,0.42053152683689415,0.628318952692651,0.9672225117248566,0.628318952692651,0.504637832204273
332,0.6302171972627194,0.6307972902553413,0.6302171972627194,0.14017717561229806,0.6302171972627194,0.042053152683689414,0.6302171972627194,0.42053152683689415,0.6302171972627194,0.9672225117248566,0.6302171972627194,0.504637832204273
333,0.6321154418327879,0.6307972902553413,0.6321154418327879,0.14017717561229806,0.6321154418327879,0.042053152683689414,0.6321154418327879,0.42053152683689415,0.6321154418327879,0.9672225117248566,0.6321154418327879,0.504637832204273
334,0.6340136864028563,0.6307972902553413,0.6340136864028563,0.14017717561229806,0.6340136864028563,0.042053152683689414,0.6340136864028563,0.42053152683689415,0.6340136864028563,0.9672225117248566,0.6340136864028563,0.5186555497655028
335,0.6359119309729248,0.6307972902553413,0.6359119309729248,0.14017717561229806,0.6359119309729248,0.042053152683689414,0.6359119309729248,0.42053152683689415,0.6359119309729248,0.9672225117248566,0.6359119309729248,0.5186555497655028
336,0.6378101755429932,0.6307972902553413,0.6378101755429932,0.14017717561229806,0.6378101755429932,0.042053152683689414,0.6378101755429932,0.42053152683689415,0.6378101755429932,0.9672225117248566,0.6378101755429932,0.5186555497655028
337,0.6397084201130616,0.6307972902553413,0.6397084201130616,0.14017717561229806,0.6397084201130616,0.028035435122459613,0.6397084201130616,0.42053152683689415,0.6397084201130616,0.9812402292860865,0.6397084201130616,0.5186555497655028
338,0.6416066646831301,0.6307972902553413,0.6416066646831301,0.14017717561229806,0.6416066646831301,0.028035435122459613,0.6416066646831301,0.42053152683689415,0.6416066646831301,0.9812402292860865,0.6416066646831301,0.5186555497655028
339,0.6435049092531985,0.6307972902553413,0.6435049092531985,0.14017717561229806,0.6435049092531985,0.028035435122459613,0.6435049092531985,0.42053152683689415,0.6435049092531985,0.9812402292860865,0.6435049092531985,0.5186555497655028
340,0.645403153823267,0.6307972902553413,0.645403153823267,0.15419489317352786,0.645403153823267,0.028035435122459613,0.645403153823267,0.42053152683689415,0.645403153823267,0.9812402292860865,0.645403153823267,0.5186555497655028
341,0.6473013983933353,0.6167795726941114,0.6473013983933353,0.15419489317352786,0.6473013983933353,0.028035435122459613,0.6473013983933353,0.42053152683689415,0.6473013983933353,0.9812402292860865,0.6473013983933353,0.5186555497655028
342,0.6491996429634038,0.6167795726941114,0.6491996429634038,0.16821261073475766,0.6491996429634038,0.028035435122459613,0.6491996429634038,0.42053152683689415,0.6491996429634038,0.9812402292860865,0.6491996429634038,0.5186555497655028
343,0.6510978875334722,0.6167795726941114,0.6510978875334722,0.16821261073475766,0.6510978875334722,0.028035435122459613,0.6510978875334722,0.42053152683689415,0.6510978875334722,0.9812402292860865,0.6510978875334722,0.5186555497655028
344,0.6529961321035407,0.6167795726941114,0.6529961321035407,0.16821261073475766,0.6529961321035407,0.028035435122459613,0.6529961321035407,0.42053152683689415,0.6529961321035407,0.9812402292860865,0.6529961321035407,0.5186555497655028
345,0.6548943766736091,0.6167795726941114,0.6548943766736091,0.16821261073475766,0.6548943766736091,0.028035435122459613,0.6548943766736091,0.42053152683689415,0.6548943766736091,0.9812402292860865,0.6548943766736091,0.5186555497655028
346,0.6567926212436775,0.6167795726941114,0.6567926212436775,0.16821261073475766,0.6567926212436775,0.042053152683689414,0.6567926212436775,0.42053152683689415,0.6567926212436775,0.9812402292860865,0.6567926212436775,0.5186555497655028
347,0.6586908658137459,0.6167795726941114,0.6586908658137459,0.16821261073475766,0.6586908658137459,0.042053152683689414,0.6586908658137459,0.42053152683689415,0.6586908658137459,0.9812402292860865,0.6586908658137459,0.5186555497655028
348,0.6605891103838144,0.6167795726941114,0.6605891103838144,0.16821261073475766,0.6605891103838144,0.056070870244919226,0.6605891103838144,0.42053152683689415,0.6605891103838144,0.9812402292860865,0.6605891103838144,0.5186555497655028
349,0.6624873549538828,0.6167795726941114,0.6624873549538828,0.16821261073475766,0.6624873549538828,0.056070870244919226,0.6624873549538828,0.42053152683689415,0.6624873549538828,0.9812402292860865,0.6624873549538828,0.5186555497655028
350,0.6643855995239513,0.6167795726941114,0.6643855995239513,0.16821261073475766,0.6643855995239513,0.056070870244919226,0.6643855995239513,0.42053152683689415,0.6643855995239513,0.9812402292860865,0.6643855995239513,0.5186555497655028
351,0.6662838440940196,0.6167795726941114,0.6662838440940196,0.16821261073475766,0.6662838440940196,0.056070870244919226,0.6662838440940196,0.42053152683689415,0.6662838440940196,0.9812402292860865,0.6662838440940196,0.5186555497655028
352,0.6681820886640881,0.6167795726941114,0.6681820886640881,0.16821261073475766,0.6681820886640881,0.056070870244919226,0.6681820886640881,0.42053152683689415,0.6681820886640881,0.9812402292860865,0.6681820886640881,0.5186555497655028
353,0.6700803332341565,0.6167795726941114,0.6700803332341565,0.16821261073475766,0.6700803332341565,0.056070870244919226,0.6700803332341565,0.42053152683689415,0.6700803332341565,0.9812402292860865,0.6700803332341565,0.5186555497655028
354,0.671978577804225,0.6167795726941114,0.671978577804225,0.16821261073475766,0.671978577804225,0.056070870244919226,0.671978577804225,0.4065138092756644,0.671978577804225,0.9812402292860865,0.671978577804225,0.504637832204273
355,0.6738768223742934,0.6167795726941114,0.6738768223742934,0.16821261073475766,0.6738768223742934,0.056070870244919226,0.6738768223742934,0.4065138092756644,0.6738768223742934,0.9812402292860865,0.6738768223742934,0.504637832204273
356,0.6757750669443618,0.6167795726941114,0.6757750669443618,0.16821261073475766,0.6757750669443618,0.056070870244919226,0.6757750669443618,0.4065138092756644,0.6757750669443618,0.9812402292860865,0.6757750669443618,0.504637832204273
357,0.6776733115144302,0.6167795726941114,0.6776733115144302,0.16821261073475766,0.6776733115144302,0.056070870244919226,0.6776733115144302,0.4065138092756644,0.6776733115144302,0.9812402292860865,0.6776733115144302,0.4906201146430432
358,0.6795715560844987,0.6167795726941114,0.6795715560844987,0.16821261073475766,0.6795715560844987,0.056070870244919226,0.6795715560844987,0.4065138092756644,0.6795715560844987,0.9812402292860865,0.6795715560844987,0.4906201146430432
359,0.6814698006545671,0.6027618551328816,0.6814698006545671,0.16821261073475766,0.6814698006545671,0.056070870244919226,0.6814698006545671,0.4065138092756644,0.6814698006545671,0.9812402292860865,0.6814698006545671,0.4766023970818134
360,0.6833680452246356,0.6027618551328816,0.6833680452246356,0.16821261073475766,0.6833680452246356,0.056070870244919226,0.6833680452246356,0.4065138092756644,0.6833680452246356,0.9812402292860865,0.6833680452246356,0.4766023970818134
361,0.6852662897947039,0.6027618551328816,0.6852662897947039,0.18223032829598748,0.6852662897947039,0.056070870244919226,0.6852662897947039,0.4065138092756644,0.6852662897947039,0.9812402292860865,0.6852662897947039,0.4766023970818134
362,0.6871645343647724,0.6027618551328816,0.6871645343647724,0.18223032829598748,0.6871645343647724,0.056070870244919226,0.6871645343647724,0.4065138092756644,0.6871645343647724,0.9812402292860865,0.6871645343647724,0.4766023970818134
363,0.6890627789348408,0.6027618551328816,0.6890627789348408,0.18223032829598748,0.6890627789348408,0.056070870244919226,0.6890627789348408,0.4065138092756644,0.6890627789348408,0.9812402292860865,0.6890627789348408,0.4906201146430432
364,0.6909610235049093,0.6027618551328816,0.6909610235049093,0.18223032829598748,0.6909610235049093,0.056070870244919226,0.6909610235049093,0.4065138092756644,0.6909610235049093,0.9812402292860865,0.6909610235049093,0.4906201146430432
365,0.6928592680749777,0.6027618551328816,0.6928592680749777,0.18223032829598748,0.6928592680749777,0.056070870244919226,0.6928592680749777,0.39249609171443456,0.6928592680749777,0.9812402292860865,0.6928592680749777,0.4906201146430432
366,0.6947575126450461,0.6027618551328816,0.6947575126450461,0.18223032829598748,0.6947575126450461,0.056070870244919226,0.6947575126450461,0.39249609171443456,0.6947575126450461,0.9812402292860865,0.6947575126450461,0.4906201146430432
367,0.6966557572151146,0.6027618551328816,0.6966557572151146,0.18223032829598748,0.6966557572151146,0.07008858780614903,0.6966557572151146,0.39249609171443456,0.6966557572151146,0.9812402292860865,0.6966557572151146,0.4906201146430432
368,0.698554001785183,0.6027618551328816,0.698554001785183,0.18223032829598748,0.698554001785183,0.07008858780614903,0.698554001785183,0.39249609171443456,0.698554001785183,0.9812402292860865,0.698554001785183,0.4906201146430432
369,0.7004522463552515,0.6027618551328816,0.7004522463552515,0.18223032829598748,0.7004522463552515,0.07008858780614903,0.7004522463552515,0.39249609171443456,0.7004522463552515,0.9812402292860865,0.7004522463552515,0.4906201146430432
370,0.7023504909253199,0.6027618551328816,0.7023504909253199,0.18223032829598748,0.7023504909253199,0.07008858780614903,0.7023504909253199,0.39249609171443456,0.7023504909253199,0.9812402292860865,0.7023504909253199,0.4906201146430432
371,0.7042487354953884,0.6027618551328816,0.7042487354953884,0.18223032829598748,0.7042487354953884,0.07008858780614903,0.7042487354953884,0.39249609171443456,0.7042487354953884,0.9812402292860865,0.7042487354953884,0.4906201146430432
372,0.7061469800654567,0.6027618551328816,0.7061469800654567,0.18223032829598748,0.7061469800654567,0.07008858780614903,0.7061469800654567,0.39249609171443456,0.7061469800654567,0.9812402292860865,0.7061469800654567,0.4906201146430432
373,0.7080452246355252,0.6027618551328816,0.7080452246355252,0.18223032829598748,0.7080452246355252,0.07008858780614903,0.7080452246355252,0.37847837415320473,0.7080452246355252,0.9812402292860865,0.7080452246355252,0.4906201146430432
374,0.7099434692055936,0.6027618551328816,0.7099434692055936,0.18223032829598748,0.7099434692055936,0.07008858780614903,0.7099434692055936,0.39249609171443456,0.7099434692055936,0.9812402292860865,0.7099434692055936,0.4906201146430432
375,0.7118417137756621,0.6027618551328816,0.7118417137756621,0.18223032829598748,0.7118417137756621,0.07008858780614903,0.7118417137756621,0.39249609171443456,0.7118417137756621,0.9812402292860865,0.7118417137756621,0.4906201146430432
376,0.7137399583457305,0.6027618551328816,0.7137399583457305,0.18223032829598748,0.7137399583457305,0.07008858780614903,0.7137399583457305,0.39249609171443456,0.7137399583457305,0.9812402292860865,0.7137399583457305,0.504637832204273
377,0.7156382029157989,0.6027618551328816,0.7156382029157989,0.18223032829598748,0.7156382029157989,0.07008858780614903,0.7156382029157989,0.4065138092756644,0.7156382029157989,0.9812402292860865,0.7156382029157989,0.504637832204273
378,0.7175364474858673,0.6027618551328816,0.7175364474858673,0.18223032829598748,0.7175364474858673,0.07008858780614903,0.7175364474858673,0.4065138092756644,0.7175364474858673,0.9812402292860865,0.7175364474858673,0.504637832204273
379,0.7194346920559358,0.6167795726941114,0.7194346920559358,0.18223032829598748,0.7194346920559358,0.07008858780614903,0.7194346920559358,0.4065138092756644,0.7194346920559358,0.9812402292860865,0.7194346920559358,0.504637832204273
380,0.7213329366260042,0.6167795726941114,0.7213329366260042,0.18223032829598748,0.7213329366260042,0.07008858780614903,0.7213329366260042,0.4065138092756644,0.7213329366260042,0.9812402292860865,0.7213329366260042,0.504637832204273
381,0.7232311811960727,0.6167795726941114,0.7232311811960727,0.18223032829598748,0.7232311811960727,0.07008858780614903,0.7232311811960727,0.42053152683689415,0.7232311811960727,0.9812402292860865,0.7232311811960727,0.504637832204273
382,0.725129425766141,0.6167795726941114,0.725129425766141,0.18223032829598748,0.725129425766141,0.07008858780614903,0.725129425766141,0.42053152683689415,0.725129425766141,0.9812402292860865,0.725129425766141,0.504637832204273
383,0.7270276703362095,0.6167795726941114,0.7270276703362095,0.18223032829598748,0.7270276703362095,0.07008858780614903,0.7270276703362095,0.42053152683689415,0.7270276703362095,0.9812402292860865,0.7270276703362095,0.504637832204273
384,0.7289259149062779,0.6167795726941114,0.7289259149062779,0.18223032829598748,0.7289259149062779,0.07008858780614903,0.7289259149062779,0.42053152683689415,0.7289259149062779,0.9812402292860865,0.7289259149062779,0.504637832204273
385,0.7308241594763464,0.6167795726941114,0.7308241594763464,0.18223032829598748,0.7308241594763464,0.07008858780614903,0.7308241594763464,0.42053152683689415,0.7308241594763464,0.9812402292860865,0.7308241594763464,0.504637832204273
386,0.7327224040464148,0.6167795726941114,0.7327224040464148,0.16821261073475766,0.7327224040464148,0.07008858780614903,0.7327224040464148,0.42053152683689415,0.7327224040464148,0.9812402292860865,0.7327224040464148,0.504637832204273
387,0.7346206486164832,0.6167795726941114,0.7346206486164832,0.16821261073475766,0.7346206486164832,0.07008858780614903,0.7346206486164832,0.42053152683689415,0.7346206486164832,0.9812402292860865,0.7346206486164832,0.504637832204273
388,0.7365188931865516,0.6167795726941114,0.7365188931865516,0.16821261073475766,0.7365188931865516,0.07008858780614903,0.7365188931865516,0.42053152683689415,0.7365188931865516,0.9812402292860865,0.7365188931865516,0.504637832204273
389,0.7384171377566201,0.6167795726941114,0.7384171377566201,0.16821261073475766,0.7384171377566201,0.07008858780614903,0.7384171377566201,0.42053152683689415,0.7384171377566201,0.9812402292860865,0.7384171377566201,0.504637832204273
390,0.7403153823266885,0.6167795726941114,0.7403153823266885,0.16821261073475766,0.7403153823266885,0.07008858780614903,0.7403153823266885,0.42053152683689415,0.7403153823266885,0.9812402292860865,0.7403153823266885,0.504637832204273
391,0.742213626896757,0.6167795726941114,0.742213626896757,0.15419489317352786,0.742213626896757,0.07008858780614903,0.742213626896757,0.42053152683689415,0.742213626896757,0.9812402292860865,0.742213626896757,0.504637832204273
392,0.7441118714668253,0.6167795726941114,0.7441118714668253,0.15419489317352786,0.7441118714668253,0.056070870244919226,0.7441118714668253,0.42053152683689415,0.7441118714668253,0.9812402292860865,0.7441118714668253,0.504637832204273
393,0.7460101160368938,0.6167795726941114,0.7460101160368938,0.14017717561229806,0.7460101160368938,0.056070870244919226,0.7460101160368938,0.42053152683689415,0.7460101160368938,0.9812402292860865,0.7460101160368938,0.504637832204273
394,0.7479083606069622,0.6167795726941114,0.7479083606069622,0.14017717561229806,0.7479083606069622,0.056070870244919226,0.7479083606069622,0.42053152683689415,0.7479083606069622,0.9672225117248566,0.7479083606069622,0.504637832204273
395,0.7498066051770307,0.6167795726941114,0.7498066051770307,0.15419489317352786,0.7498066051770307,0.056070870244919226,0.7498066051770307,0.42053152683689415,0.7498066051770307,0.9532047941636268,0.7498066051770307,0.504637832204273
396,0.7517048497470991,0.6167795726941114,0.7517048497470991,0.15419489317352786,0.7517048497470991,0.056070870244919226,0.7517048497470991,0.42053152683689415,0.7517048497470991,0.939187076602397,0.7517048497470991,0.504637832204273
397,0.7536030943171675,0.6167795726941114,0.7536030943171675,0.16821261073475766,0.7536030943171675,0.042053152683689414,0.7536030943171675,0.42053152683689415,0.7536030943171675,0.8971339239187076,0.7536030943171675,0.4906201146430432
398,0.755501338887236,0.6027618551328816,0.755501338887236,0.16821261073475766,0.755501338887236,0.042053152683689414,0.755501338887236,0.434549244398124,0.755501338887236,0.869098488796248,0.755501338887236,0.4906201146430432
399,0.7573995834573044,0.6027618551328816,0.7573995834573044,0.16821261073475766,0.7573995834573044,0.028035435122459613,0.7573995834573044,0.434549244398124,0.7573995834573044,0.869098488796248,0.7573995834573044,0.4906201146430432
400,0.7592978280273729,0.6027618551328816,0.7592978280273729,0.16821261073475766,0.7592978280273729,0.028035435122459613,0.7592978280273729,0.434549244398124,0.7592978280273729,0.8971339239187076,0.7592978280273729,0.4906201146430432
401,0.7611960725974413,0.6027618551328816,0.7611960725974413,0.16821261073475766,0.7611960725974413,0.042053152683689414,0.7611960725974413,0.434549244398124,0.7611960725974413,0.9251693590411671,0.7611960725974413,0.4906201146430432
402,0.7630943171675098,0.6027618551328816,0.7630943171675098,0.16821261073475766,0.7630943171675098,0.042053152683689414,0.7630943171675098,0.434549244398124,0.7630943171675098,0.939187076602397,0.7630943171675098,0.4906201146430432
403,0.7649925617375781,0.6027618551328816,0.7649925617375781,0.16821261073475766,0.7649925617375781,0.056070870244919226,0.7649925617375781,0.434549244398124,0.7649925617375781,0.9532047941636268,0.7649925617375781,0.4906201146430432
404,0.7668908063076466,0.6027618551328816,0.7668908063076466,0.16821261073475766,0.7668908063076466,0.056070870244919226,0.7668908063076466,0.434549244398124,0.7668908063076466,0.9532047941636268,0.7668908063076466,0.4906201146430432
405,0.768789050877715,0.6027618551328816,0.768789050877715,0.16821261073475766,0.768789050877715,0.056070870244919226,0.768789050877715,0.434549244398124,0.768789050877715,0.9672225117248566,0.768789050877715,0.4906201146430432
406,0.7706872954477835,0.6167795726941114,0.7706872954477835,0.16821261073475766,0.7706872954477835,0.056070870244919226,0.7706872954477835,0.434549244398124,0.7706872954477835,0.9672225117248566,0.7706872954477835,0.4906201146430432
407,0.7725855400178518,0.6167795726941114,0.7725855400178518,0.16821261073475766,0.7725855400178518,0.056070870244919226,0.7725855400178518,0.434549244398124,0.7725855400178518,0.9812402292860865,0.7725855400178518,0.4906201146430432
408,0.7744837845879203,0.6167795726941114,0.7744837845879203,0.16821261073475766,0.7744837845879203,0.056070870244919226,0.7744837845879203,0.434549244398124,0.7744837845879203,0.9812402292860865,0.7744837845879203,0.4906201146430432
409,0.7763820291579887,0.6167795726941114,0.7763820291579887,0.16821261073475766,0.7763820291579887,0.056070870244919226,0.7763820291579887,0.434549244398124,0.7763820291579887,0.9812402292860865,0.7763820291579887,0.4906201146430432
410,0.7782802737280572,0.6167795726941114,0.7782802737280572,0.16821261073475766,0.7782802737280572,0.056070870244919226,0.7782802737280572,0.434549244398124,0.7782802737280572,0.9812402292860865,0.7782802737280572,0.4906201146430432
411,0.7801785182981256,0.6167795726941114,0.7801785182981256,0.16821261073475766,0.7801785182981256,0.056070870244919226,0.7801785182981256,0.434549244398124,0.7801785182981256,0.9812402292860865,0.7801785182981256,0.4906201146430432
412,0.782076762868194,0.6167795726941114,0.782076762868194,0.16821261073475766,0.782076762868194,0.056070870244919226,0.782076762868194,0.434549244398124,0.782076762868194,0.9812402292860865,0.782076762868194,0.4766023970818134
413,0.7839750074382624,0.6167795726941114,0.7839750074382624,0.16821261073475766,0.7839750074382624,0.056070870244919226,0.7839750074382624,0.434549244398124,0.7839750074382624,0.9812402292860865,0.7839750074382624,0.4766023970818134
414,0.7858732520083309,0.6167795726941114,0.7858732520083309,0.16821261073475766,0.7858732520083309,0.056070870244919226,0.7858732520083309,0.434549244398124,0.7858732520083309,0.9812402292860865,0.7858732520083309,0.4625846795205836
415,0.7877714965783993,0.6167795726941114,0.7877714965783993,0.16821261073475766,0.7877714965783993,0.056070870244919226,0.7877714965783993,0.434549244398124,0.7877714965783993,0.9812402292860865,0.7877714965783993,0.4625846795205836
416,0.7896697411484678,0.6167795726941114,0.7896697411484678,0.16821261073475766,0.7896697411484678,0.056070870244919226,0.7896697411484678,0.434549244398124,0.7896697411484678,0.9812402292860865,0.7896697411484678,0.4485669619593538
417,0.7915679857185361,0.6167795726941114,0.7915679857185361,0.16821261073475766,0.7915679857185361,0.056070870244919226,0.7915679857185361,0.4485669619593538,0.7915679857185361,0.9812402292860865,0.7915679857185361,0.434549244398124
418,0.7934662302886046,0.6167795726941114,0.7934662302886046,0.18223032829598748,0.7934662302886046,0.056070870244919226,0.7934662302886046,0.4485669619593538,0.7934662302886046,0.9812402292860865,0.7934662302886046,0.42053152683689415
419,0.795364474858673,0.6167795726941114,0.795364474858673,0.18223032829598748,0.795364474858673,0.056070870244919226,0.795364474858673,0.4485669619593538,0.795364474858673,0.9812402292860865,0.795364474858673,0.42053152683689415
420,0.7972627194287415,0.6167795726941114,0.7972627194287415,0.18223032829598748,0.7972627194287415,0.056070870244919226,0.7972627194287415,0.4485669619593538,0.7972627194287415,0.9812402292860865,0.7972627194287415,0.4065138092756644
421,0.7991609639988099,0.6167795726941114,0.7991609639988099,0.18223032829598748,0.7991609639988099,0.056070870244919226,0.7991609639988099,0.4485669619593538,0.7991609639988099,0.9812402292860865,0.7991609639988099,0.4065138092756644
422,0.8010592085688784,0.6167795726941114,0.8010592085688784,0.18223032829598748,0.8010592085688784,0.056070870244919226,0.8010592085688784,0.4625846795205836,0.8010592085688784,0.9812402292860865,0.8010592085688784,0.39249609171443456
423,0.8029574531389467,0.6167795726941114,0.8029574531389467,0.18223032829598748,0.8029574531389467,0.056070870244919226,0.8029574531389467,0.4625846795205836,0.8029574531389467,0.9812402292860865,0.8029574531389467,0.39249609171443456
424,0.8048556977090152,0.6167795726941114,0.8048556977090152,0.18223032829598748,0.8048556977090152,0.07008858780614903,0.8048556977090152,0.4625846795205836,0.8048556977090152,0.9812402292860865,0.8048556977090152,0.39249609171443456
425,0.8067539422790836,0.6167795726941114,0.8067539422790836,0.18223032829598748,0.8067539422790836,0.07008858780614903,0.8067539422790836,0.4766023970818134,0.8067539422790836,0.9812402292860865,0.8067539422790836,0.37847837415320473
426,0.8086521868491521,0.6167795726941114,0.8086521868491521,0.18223032829598748,0.8086521868491521,0.07008858780614903,0.8086521868491521,0.4906201146430432,0.8086521868491521,0.9672225117248566,0.8086521868491521,0.37847837415320473
427,0.8105504314192206,0.6167795726941114,0.8105504314192206,0.18223032829598748,0.8105504314192206,0.07008858780614903,0.8105504314192206,0.504637832204273,0.8105504314192206,0.9532047941636268,0.8105504314192206,0.37847837415320473
428,0.8124486759892889,0.6167795726941114,0.8124486759892889,0.18223032829598748,0.8124486759892889,0.07008858780614903,0.8124486759892889,0.5186555497655028,0.8124486759892889,0.939187076602397,0.8124486759892889,0.37847837415320473
429,0.8143469205593574,0.6307972902553413,0.8143469205593574,0.18223032829598748,0.8143469205593574,0.07008858780614903,0.8143469205593574,0.5186555497655028,0.8143469205593574,0.9251693590411671,0.8143469205593574,0.37847837415320473
430,0.8162451651294258,0.6448150078165711,0.8162451651294258,0.18223032829598748,0.8162451651294258,0.07008858780614903,0.8162451651294258,0.5186555497655028,0.8162451651294258,0.8971339239187076,0.8162451651294258,0.39249609171443456
431,0.8181434096994943,0.6448150078165711,0.8181434096994943,0.18223032829598748,0.8181434096994943,0.07008858780614903,0.8181434096994943,0.5186555497655028,0.8181434096994943,0.869098488796248,0.8181434096994943,0.39249609171443456
432,0.8200416542695627,0.6448150078165711,0.8200416542695627,0.18223032829598748,0.8200416542695627,0.07008858780614903,0.8200416542695627,0.5186555497655028,0.8200416542695627,0.8550807712350181,0.8200416542695627,0.39249609171443456
433,0.8219398988396311,0.6448150078165711,0.8219398988396311,0.18223032829598748,0.8219398988396311,0.07008858780614903,0.8219398988396311,0.5186555497655028,0.8219398988396311,0.8270453361125586,0.8219398988396311,0.39249609171443456
434,0.8238381434096995,0.6448150078165711,0.8238381434096995,0.18223032829598748,0.8238381434096995,0.07008858780614903,0.8238381434096995,0.5186555497655028,0.8238381434096995,0.8270453361125586,0.8238381434096995,0.4065138092756644
435,0.825736387979768,0.6448150078165711,0.825736387979768,0.18223032829598748,0.825736387979768,0.07008858780614903,0.825736387979768,0.5186555497655028,0.825736387979768,0.8130276185513288,0.825736387979768,0.4065138092756644
436,0.8276346325498364,0.6448150078165711,0.8276346325498364,0.18223032829598748,0.8276346325498364,0.07008858780614903,0.8276346325498364,0.5186555497655028,0.8276346325498364,0.7990099009900989,0.8276346325498364,0.4065138092756644
437,0.8295328771199049,0.6448150078165711,0.8295328771199049,0.18223032829598748,0.8295328771199049,0.07008858780614903,0.8295328771199049,0.5186555497655028,0.8295328771199049,0.7990099009900989,0.8295328771199049,0.4065138092756644
438,0.8314311216899732,0.6448150078165711,0.8314311216899732,0.18223032829598748,0.8314311216899732,0.07008858780614903,0.8314311216899732,0.5186555497655028,0.8314311216899732,0.7990099009900989,0.8314311216899732,0.4065138092756644
439,0.8333293662600417,0.6448150078165711,0.8333293662600417,0.18223032829598748,0.8333293662600417,0.07008858780614903,0.8333293662600417,0.5186555497655028,0.8333293662600417,0.7990099009900989,0.8333293662600417,0.4065138092756644
440,0.8352276108301101,0.6448150078165711,0.8352276108301101,0.18223032829598748,0.8352276108301101,0.07008858780614903,0.8352276108301101,0.5186555497655028,0.8352276108301101,0.7990099009900989,0.8352276108301101,0.4065138092756644
441,0.8371258554001786,0.6448150078165711,0.8371258554001786,0.18223032829598748,0.8371258554001786,0.07008858780614903,0.8371258554001786,0.5186555497655028,0.8371258554001786,0.8130276185513288,0.8371258554001786,0.4065138092756644
442,0.839024099970247,0.6448150078165711,0.839024099970247,0.18223032829598748,0.839024099970247,0.07008858780614903,0.839024099970247,0.5186555497655028,0.839024099970247,0.8130276185513288,0.839024099970247,0.4065138092756644
443,0.8409223445403154,0.6448150078165711,0.8409223445403154,0.18223032829598748,0.8409223445403154,0.07008858780614903,0.8409223445403154,0.5186555497655028,0.8409223445403154,0.8130276185513288,0.8409223445403154,0.42053152683689415
444,0.8428205891103838,0.6448150078165711,0.8428205891103838,0.18223032829598748,0.8428205891103838,0.07008858780614903,0.8428205891103838,0.5186555497655028,0.8428205891103838,0.8130276185513288,0.8428205891103838,0.42053152683689415
445,0.8447188336804523,0.6448150078165711,0.8447188336804523,0.18223032829598748,0.8447188336804523,0.07008858780614903,0.8447188336804523,0.5186555497655028,0.8447188336804523,0.8130276185513288,0.8447188336804523,0.42053152683689415
446,0.8466170782505207,0.6448150078165711,0.8466170782505207,0.18223032829598748,0.8466170782505207,0.07008858780614903,0.8466170782505207,0.5186555497655028,0.8466170782505207,0.8270453361125586,0.8466170782505207,0.42053152683689415
447,0.8485153228205892,0.6448150078165711,0.8485153228205892,0.18223032829598748,0.8485153228205892,0.07008858780614903,0.8485153228205892,0.504637832204273,0.8485153228205892,0.8270453361125586,0.8485153228205892,0.434549244398124
448,0.8504135673906575,0.6448150078165711,0.8504135673906575,0.18223032829598748,0.8504135673906575,0.07008858780614903,0.8504135673906575,0.4906201146430432,0.8504135673906575,0.8270453361125586,0.8504135673906575,0.434549244398124
449,0.852311811960726,0.6448150078165711,0.852311811960726,0.18223032829598748,0.852311811960726,0.07008858780614903,0.852311811960726,0.4766023970818134,0.852311811960726,0.8270453361125586,0.852311811960726,0.4485669619593538
450,0.8542100565307944,0.6448150078165711,0.8542100565307944,0.18223032829598748,0.8542100565307944,0.07008858780614903,0.8542100565307944,0.4625846795205836,0.8542100565307944,0.8270453361125586,0.8542100565307944,0.4625846795205836
451,0.8561083011008629,0.6307972902553413,0.8561083011008629,0.16821261073475766,0.8561083011008629,0.07008858780614903,0.8561083011008629,0.4625846795205836,0.8561083011008629,0.8270453361125586,0.8561083011008629,0.4625846795205836
452,0.8580065456709313,0.6307972902553413,0.8580065456709313,0.16821261073475766,0.8580065456709313,0.07008858780614903,0.8580065456709313,0.4485669619593538,0.8580065456709313,0.8270453361125586,0.8580065456709313,0.4766023970818134
453,0.8599047902409998,0.6307972902553413,0.8599047902409998,0.16821261073475766,0.8599047902409998,0.07008858780614903,0.8599047902409998,0.4485669619593538,0.8599047902409998,0.8270453361125586,0.8599047902409998,0.4766023970818134
454,0.8618030348110681,0.6307972902553413,0.8618030348110681,0.16821261073475766,0.8618030348110681,0.07008858780614903,0.8618030348110681,0.4485669619593538,0.8618030348110681,0.8270453361125586,0.8618030348110681,0.4766023970818134
455,0.8637012793811366,0.6307972902553413,0.8637012793811366,0.16821261073475766,0.8637012793811366,0.07008858780614903,0.8637012793811366,0.4485669619593538,0.8637012793811366,0.8410630536737883,0.8637012793811366,0.4766023970818134
456,0.865599523951205,0.6307972902553413,0.865599523951205,0.16821261073475766,0.865599523951205,0.07008858780614903,0.865599523951205,0.434549244398124,0.865599523951205,0.8410630536737883,0.865599523951205,0.4766023970818134
457,0.8674977685212735,0.6307972902553413,0.8674977685212735,0.16821261073475766,0.8674977685212735,0.056070870244919226,0.8674977685212735,0.434549244398124,0.8674977685212735,0.8410630536737883,0.8674977685212735,0.4766023970818134
458,0.869396013091342,0.6307972902553413,0.869396013091342,0.16821261073475766,0.869396013091342,0.056070870244919226,0.869396013091342,0.434549244398124,0.869396013091342,0.8410630536737883,0.869396013091342,0.4766023970818134
459,0.8712942576614103,0.6307972902553413,0.8712942576614103,0.16821261073475766,0.8712942576614103,0.056070870244919226,0.8712942576614103,0.434549244398124,0.8712942576614103,0.8550807712350181,0.8712942576614103,0.4766023970818134
460,0.8731925022314788,0.6307972902553413,0.8731925022314788,0.16821261073475766,0.8731925022314788,0.056070870244919226,0.8731925022314788,0.434549244398124,0.8731925022314788,0.8550807712350181,0.8731925022314788,0.4766023970818134
461,0.8750907468015472,0.6307972902553413,0.8750907468015472,0.16821261073475766,0.8750907468015472,0.056070870244919226,0.8750907468015472,0.4485669619593538,0.8750907468015472,0.8550807712350181,0.8750907468015472,0.4766023970818134
462,0.8769889913716157,0.6307972902553413,0.8769889913716157,0.16821261073475766,0.8769889913716157,0.056070870244919226,0.8769889913716157,0.4485669619593538,0.8769889913716157,0.869098488796248,0.8769889913716157,0.4766023970818134
463,0.878887235941684,0.6307972902553413,0.878887235941684,0.16821261073475766,0.878887235941684,0.056070870244919226,0.878887235941684,0.4485669619593538,0.878887235941684,0.869098488796248,0.878887235941684,0.4766023970818134
464,0.8807854805117525,0.6307972902553413,0.8807854805117525,0.16821261073475766,0.8807854805117525,0.056070870244919226,0.8807854805117525,0.4485669619593538,0.8807854805117525,0.8831162063574778,0.8807854805117525,0.4766023970818134
465,0.8826837250818209,0.6307972902553413,0.8826837250818209,0.16821261073475766,0.8826837250818209,0.056070870244919226,0.8826837250818209,0.4485669619593538,0.8826837250818209,0.8971339239187076,0.8826837250818209,0.4906201146430432
466,0.8845819696518894,0.6307972902553413,0.8845819696518894,0.16821261073475766,0.8845819696518894,0.056070870244919226,0.8845819696518894,0.4485669619593538,0.8845819696518894,0.9111516414799373,0.8845819696518894,0.4906201146430432
467,0.8864802142219578,0.6307972902553413,0.8864802142219578,0.16821261073475766,0.8864802142219578,0.056070870244919226,0.8864802142219578,0.4485669619593538,0.8864802142219578,0.9251693590411671,0.8864802142219578,0.4906201146430432
468,0.8883784587920263,0.6307972902553413,0.8883784587920263,0.16821261073475766,0.8883784587920263,0.056070870244919226,0.8883784587920263,0.4485669619593538,0.8883784587920263,0.9251693590411671,0.8883784587920263,0.4906201146430432
469,0.8902767033620946,0.6307972902553413,0.8902767033620946,0.16821261073475766,0.8902767033620946,0.056070870244919226,0.8902767033620946,0.4485669619593538,0.8902767033620946,0.9251693590411671,0.8902767033620946,0.4906201146430432
470,0.8921749479321631,0.6307972902553413,0.8921749479321631,0.16821261073475766,0.8921749479321631,0.056070870244919226,0.8921749479321631,0.4485669619593538,0.8921749479321631,0.9251693590411671,0.8921749479321631,0.504637832204273
471,0.8940731925022315,0.6307972902553413,0.8940731925022315,0.16821261073475766,0.8940731925022315,0.056070870244919226,0.8940731925022315,0.4485669619593538,0.8940731925022315,0.9251693590411671,0.8940731925022315,0.504637832204273
472,0.8959714370723,0.6307972902553413,0.8959714370723,0.16821261073475766,0.8959714370723,0.056070870244919226,0.8959714370723,0.4485669619593538,0.8959714370723,0.9251693590411671,0.8959714370723,0.504637832204273
473,0.8978696816423684,0.6307972902553413,0.8978696816423684,0.18223032829598748,0.8978696816423684,0.056070870244919226,0.8978696816423684,0.4485669619593538,0.8978696816423684,0.9251693590411671,0.8978696816423684,0.504637832204273
474,0.8997679262124368,0.6307972902553413,0.8997679262124368,0.18223032829598748,0.8997679262124368,0.056070870244919226,0.8997679262124368,0.4485669619593538,0.8997679262124368,0.9251693590411671,0.8997679262124368,0.504637832204273
475,0.9016661707825052,0.6307972902553413,0.9016661707825052,0.18223032829598748,0.9016661707825052,0.056070870244919226,0.9016661707825052,0.4485669619593538,0.9016661707825052,0.9251693590411671,0.9016661707825052,0.504637832204273
476,0.9035644153525737,0.6307972902553413,0.9035644153525737,0.19624804585721728,0.9035644153525737,0.056070870244919226,0.9035644153525737,0.4485669619593538,0.9035644153525737,0.9251693590411671,0.9035644153525737,0.504637832204273
477,0.9054626599226421,0.6307972902553413,0.9054626599226421,0.19624804585721728,0.9054626599226421,0.056070870244919226,0.9054626599226421,0.4485669619593538,0.9054626599226421,0.9251693590411671,0.9054626599226421,0.504637832204273
478,0.9073609044927106,0.6307972902553413,0.9073609044927106,0.19624804585721728,0.9073609044927106,0.056070870244919226,0.9073609044927106,0.4485669619593538,0.9073609044927106,0.9251693590411671,0.9073609044927106,0.504637832204273
479,0.9092591490627789,0.6307972902553413,0.9092591490627789,0.19624804585721728,0.9092591490627789,0.07008858780614903,0.9092591490627789,0.4485669619593538,0.9092591490627789,0.9251693590411671,0.9092591490627789,0.504637832204273
480,0.9111573936328474,0.6307972902553413,0.9111573936328474,0.19624804585721728,0.9111573936328474,0.07008858780614903,0.9111573936328474,0.4485669619593538,0.9111573936328474,0.9251693590411671,0.9111573936328474,0.504637832204273
481,0.9130556382029158,0.6307972902553413,0.9130556382029158,0.19624804585721728,0.9130556382029158,0.07008858780614903,0.9130556382029158,0.4485669619593538,0.9130556382029158,0.9251693590411671,0.9130556382029158,0.504637832204273
482,0.9149538827729843,0.6307972902553413,0.9149538827729843,0.19624804585721728,0.9149538827729843,0.08410630536737883,0.9149538827729843,0.4485669619593538,0.9149538827729843,0.9251693590411671,0.9149538827729843,0.5186555497655028
483,0.9168521273430527,0.6307972902553413,0.9168521273430527,0.19624804585721728,0.9168521273430527,0.08410630536737883,0.9168521273430527,0.4485669619593538,0.9168521273430527,0.9251693590411671,0.9168521273430527,0.5186555497655028
484,0.9187503719131211,0.6307972902553413,0.9187503719131211,0.19624804585721728,0.9187503719131211,0.08410630536737883,0.9187503719131211,0.4485669619593538,0.9187503719131211,0.9251693590411671,0.9187503719131211,0.5186555497655028
485,0.9206486164831895,0.6307972902553413,0.9206486164831895,0.19624804585721728,0.9206486164831895,0.08410630536737883,0.9206486164831895,0.4485669619593538,0.9206486164831895,0.9251693590411671,0.9206486164831895,0.5186555497655028
486,0.922546861053258,0.6307972902553413,0.922546861053258,0.19624804585721728,0.922546861053258,0.08410630536737883,0.922546861053258,0.4485669619593538,0.922546861053258,0.9251693590411671,0.922546861053258,0.5186555497655028
487,0.9244451056233264,0.6307972902553413,0.9244451056233264,0.19624804585721728,0.9244451056233264,0.08410630536737883,0.9244451056233264,0.4485669619593538,0.9244451056233264,0.9111516414799373,0.9244451056233264,0.5326732673267326
488,0.9263433501933949,0.6307972902553413,0.9263433501933949,0.19624804585721728,0.9263433501933949,0.08410630536737883,0.9263433501933949,0.4485669619593538,0.9263433501933949,0.8971339239187076,0.9263433501933949,0.5326732673267326
489,0.9282415947634634,0.6448150078165711,0.9282415947634634,0.19624804585721728,0.9282415947634634,0.08410630536737883,0.9282415947634634,0.4485669619593538,0.9282415947634634,0.8971339239187076,0.9282415947634634,0.5326732673267326
490,0.9301398393335317,0.6448150078165711,0.9301398393335317,0.19624804585721728,0.9301398393335317,0.08410630536737883,0.9301398393335317,0.4485669619593538,0.9301398393335317,0.8831162063574778,0.9301398393335317,0.5326732673267326
491,0.9320380839036002,0.6588327253778009,0.9320380839036002,0.19624804585721728,0.9320380839036002,0.08410630536737883,0.9320380839036002,0.4485669619593538,0.9320380839036002,0.8831162063574778,0.9320380839036002,0.5326732673267326
492,0.9339363284736686,0.6728504429390306,0.9339363284736686,0.19624804585721728,0.9339363284736686,0.08410630536737883,0.9339363284736686,0.4485669619593538,0.9339363284736686,0.8831162063574778,0.9339363284736686,0.5326732673267326
493,0.9358345730437371,0.7008858780614903,0.9358345730437371,0.19624804585721728,0.9358345730437371,0.08410630536737883,0.9358345730437371,0.4485669619593538,0.9358345730437371,0.869098488796248,0.9358345730437371,0.5326732673267326
494,0.9377328176138054,0.7008858780614903,0.9377328176138054,0.19624804585721728,0.9377328176138054,0.08410630536737883,0.9377328176138054,0.4485669619593538,0.9377328176138054,0.869098488796248,0.9377328176138054,0.5326732673267326
495,0.9396310621838739,0.7008858780614903,0.9396310621838739,0.19624804585721728,0.9396310621838739,0.08410630536737883,0.9396310621838739,0.4485669619593538,0.9396310621838739,0.869098488796248,0.9396310621838739,0.5326732673267326
496,0.9415293067539423,0.7008858780614903,0.9415293067539423,0.19624804585721728,0.9415293067539423,0.08410630536737883,0.9415293067539423,0.4485669619593538,0.9415293067539423,0.869098488796248,0.9415293067539423,0.5326732673267326
497,0.9434275513240108,0.7008858780614903,0.9434275513240108,0.19624804585721728,0.9434275513240108,0.08410630536737883,0.9434275513240108,0.4485669619593538,0.9434275513240108,0.8550807712350181,0.9434275513240108,0.5326732673267326
498,0.9453257958940792,0.7008858780614903,0.9453257958940792,0.18223032829598748,0.9453257958940792,0.08410630536737883,0.9453257958940792,0.4485669619593538,0.9453257958940792,0.8410630536737883,0.9453257958940792,0.5326732673267326
499,0.9472240404641477,0.7008858780614903,0.9472240404641477,0.18223032829598748,0.9472240404641477,0.08410630536737883,0.9472240404641477,0.4485669619593538,0.9472240404641477,0.7289213131839499,0.9472240404641477,0.5326732673267326
500,0.949122285034216,0.7008858780614903,0.949122285034216,0.18223032829598748,0.949122285034216,0.08410630536737883,0.949122285034216,0.4485669619593538,0.949122285034216,0.6448150078165711,0.949122285034216,0.5326732673267326
501,0.9510205296042845,0.7008858780614903,0.9510205296042845,0.18223032829598748,0.9510205296042845,0.08410630536737883,0.9510205296042845,0.4485669619593538,0.9510205296042845,0.5326732673267326,0.9510205296042845,0.5326732673267326
502,0.9529187741743529,0.7008858780614903,0.9529187741743529,0.18223032829598748,0.9529187741743529,0.08410630536737883,0.9529187741743529,0.4485669619593538,0.9529187741743529,0.4625846795205836,0.9529187741743529,0.5326732673267326
503,0.9548170187444214,0.7008858780614903,0.9548170187444214,0.18223032829598748,0.9548170187444214,0.08410630536737883,0.9548170187444214,0.4485669619593538,0.9548170187444214,0.434549244398124,0.9548170187444214,0.5326732673267326
504,0.9567152633144898,0.7008858780614903,0.9567152633144898,0.18223032829598748,0.9567152633144898,0.07008858780614903,0.9567152633144898,0.4485669619593538,0.9567152633144898,0.4065138092756644,0.9567152633144898,0.5326732673267326
505,0.9586135078845582,0.7008858780614903,0.9586135078845582,0.18223032829598748,0.9586135078845582,0.07008858780614903,0.9586135078845582,0.4485669619593538,0.9586135078845582,0.4065138092756644,0.9586135078845582,0.5326732673267326
506,0.9605117524546266,0.7008858780614903,0.9605117524546266,0.16821261073475766,0.9605117524546266,0.07008858780614903,0.9605117524546266,0.37847837415320473,0.9605117524546266,0.39249609171443456,0.9605117524546266,0.5326732673267326
