,x_val,y_val,x_val,y_val,x_val,y_val,x_val,y_val,x_val,y_val,x_val,y_val,x_val,y_val,x_val,y_val
0,0.0,0.45056497175141236,0.0,0.6881355932203389,0.0,0.6471751412429377,0.0,0.6021186440677966,0.0,0.5980225988700564,0.0,0.3522598870056497
1,0.001979585524280854,0.45056497175141236,0.001979585524280854,0.6881355932203389,0.001979585524280854,0.6471751412429377,0.001979585524280854,0.6021186440677966,0.001979585524280854,0.5857344632768361,0.001979585524280854,0.34406779661016945
2,0.003959171048561708,0.45056497175141236,0.003959171048561708,0.6881355932203389,0.003959171048561708,0.6471751412429377,0.003959171048561708,0.6021186440677966,0.003959171048561708,0.5734463276836157,0.003959171048561708,0.33997175141242936
3,0.0059387565728425615,0.45056497175141236,0.0059387565728425615,0.6881355932203389,0.0059387565728425615,0.6471751412429377,0.0059387565728425615,0.6021186440677966,0.0059387565728425615,0.5857344632768361,0.0059387565728425615,0.3358757062146892
4,0.007918342097123415,0.45056497175141236,0.007918342097123415,0.6881355932203389,0.007918342097123415,0.6471751412429377,0.007918342097123415,0.6021186440677966,0.007918342097123415,0.5980225988700564,0.007918342097123415,0.3317796610169491
5,0.009897927621404269,0.45056497175141236,0.009897927621404269,0.6881355932203389,0.009897927621404269,0.6471751412429377,0.009897927621404269,0.6021186440677966,0.009897927621404269,0.6021186440677966,0.009897927621404269,0.327683615819209
6,0.011877513145685123,0.45056497175141236,0.011877513145685123,0.6881355932203389,0.011877513145685123,0.6471751412429377,0.011877513145685123,0.6021186440677966,0.011877513145685123,0.6062146892655367,0.011877513145685123,0.327683615819209
7,0.013857098669965975,0.45056497175141236,0.013857098669965975,0.6881355932203389,0.013857098669965975,0.6471751412429377,0.013857098669965975,0.5980225988700564,0.013857098669965975,0.6062146892655367,0.013857098669965975,0.327683615819209
8,0.01583668419424683,0.45056497175141236,0.01583668419424683,0.6881355932203389,0.01583668419424683,0.6471751412429377,0.01583668419424683,0.5980225988700564,0.01583668419424683,0.6062146892655367,0.01583668419424683,0.32358757062146887
9,0.017816269718527684,0.45056497175141236,0.017816269718527684,0.6881355932203389,0.017816269718527684,0.6471751412429377,0.017816269718527684,0.5980225988700564,0.017816269718527684,0.6062146892655367,0.017816269718527684,0.32358757062146887
10,0.019795855242808538,0.45056497175141236,0.019795855242808538,0.6881355932203389,0.019795855242808538,0.6471751412429377,0.019795855242808538,0.5980225988700564,0.019795855242808538,0.6103107344632768,0.019795855242808538,0.32358757062146887
11,0.021775440767089392,0.45056497175141236,0.021775440767089392,0.6881355932203389,0.021775440767089392,0.6471751412429377,0.021775440767089392,0.5980225988700564,0.021775440767089392,0.6103107344632768,0.021775440767089392,0.3194915254237288
12,0.023755026291370246,0.45056497175141236,0.023755026291370246,0.6881355932203389,0.023755026291370246,0.6471751412429377,0.023755026291370246,0.5980225988700564,0.023755026291370246,0.6103107344632768,0.023755026291370246,0.3194915254237288
13,0.0257346118156511,0.45056497175141236,0.0257346118156511,0.6881355932203389,0.0257346118156511,0.6471751412429377,0.0257346118156511,0.5980225988700564,0.0257346118156511,0.6103107344632768,0.0257346118156511,0.3153954802259887
14,0.02771419733993195,0.45056497175141236,0.02771419733993195,0.6881355932203389,0.02771419733993195,0.6471751412429377,0.02771419733993195,0.5980225988700564,0.02771419733993195,0.6103107344632768,0.02771419733993195,0.31129943502824853
15,0.029693782864212804,0.45056497175141236,0.029693782864212804,0.6840395480225988,0.029693782864212804,0.6471751412429377,0.029693782864212804,0.5980225988700564,0.029693782864212804,0.6103107344632768,0.029693782864212804,0.30310734463276834
16,0.03167336838849366,0.45056497175141236,0.03167336838849366,0.6840395480225988,0.03167336838849366,0.6471751412429377,0.03167336838849366,0.5980225988700564,0.03167336838849366,0.6103107344632768,0.03167336838849366,0.2990112994350282
17,0.033652953912774515,0.45056497175141236,0.033652953912774515,0.6840395480225988,0.033652953912774515,0.6471751412429377,0.033652953912774515,0.5980225988700564,0.033652953912774515,0.6103107344632768,0.033652953912774515,0.2949152542372881
18,0.03563253943705537,0.45056497175141236,0.03563253943705537,0.6840395480225988,0.03563253943705537,0.6471751412429377,0.03563253943705537,0.5980225988700564,0.03563253943705537,0.6103107344632768,0.03563253943705537,0.2949152542372881
19,0.03761212496133622,0.45056497175141236,0.03761212496133622,0.6840395480225988,0.03761212496133622,0.6471751412429377,0.03761212496133622,0.5980225988700564,0.03761212496133622,0.6103107344632768,0.03761212496133622,0.290819209039548
20,0.039591710485617077,0.45056497175141236,0.039591710485617077,0.6840395480225988,0.039591710485617077,0.6471751412429377,0.039591710485617077,0.512005649717514,0.039591710485617077,0.6103107344632768,0.039591710485617077,0.290819209039548
21,0.04157129600989793,0.45056497175141236,0.04157129600989793,0.6840395480225988,0.04157129600989793,0.6471751412429377,0.04157129600989793,0.507909604519774,0.04157129600989793,0.6103107344632768,0.04157129600989793,0.290819209039548
22,0.043550881534178784,0.44646892655367226,0.043550881534178784,0.6840395480225988,0.043550881534178784,0.6471751412429377,0.043550881534178784,0.5038135593220339,0.043550881534178784,0.6103107344632768,0.043550881534178784,0.290819209039548
23,0.04553046705845964,0.44237288135593217,0.04553046705845964,0.6799435028248587,0.04553046705845964,0.6471751412429377,0.04553046705845964,0.4956214689265536,0.04553046705845964,0.6103107344632768,0.04553046705845964,0.290819209039548
24,0.04751005258274049,0.438276836158192,0.04751005258274049,0.6799435028248587,0.04751005258274049,0.6471751412429377,0.04751005258274049,0.47104519774011294,0.04751005258274049,0.6103107344632768,0.04751005258274049,0.290819209039548
25,0.049489638107021346,0.438276836158192,0.049489638107021346,0.6799435028248587,0.049489638107021346,0.6471751412429377,0.049489638107021346,0.3604519774011299,0.049489638107021346,0.6103107344632768,0.049489638107021346,0.290819209039548
26,0.0514692236313022,0.4341807909604519,0.0514692236313022,0.6799435028248587,0.0514692236313022,0.6471751412429377,0.0514692236313022,0.33997175141242936,0.0514692236313022,0.6103107344632768,0.0514692236313022,0.290819209039548
27,0.053448809155583046,0.4341807909604519,0.053448809155583046,0.6799435028248587,0.053448809155583046,0.6471751412429377,0.053448809155583046,0.28672316384180785,0.053448809155583046,0.6103107344632768,0.053448809155583046,0.28672316384180785
28,0.0554283946798639,0.43008474576271183,0.0554283946798639,0.6799435028248587,0.0554283946798639,0.6471751412429377,0.0554283946798639,0.061440677966101684,0.0554283946798639,0.6103107344632768,0.0554283946798639,0.28672316384180785
29,0.057407980204144754,0.43008474576271183,0.057407980204144754,0.6799435028248587,0.057407980204144754,0.6471751412429377,0.057407980204144754,0.05324858757062146,0.057407980204144754,0.6103107344632768,0.057407980204144754,0.28672316384180785
30,0.05938756572842561,0.43008474576271183,0.05938756572842561,0.6799435028248587,0.05938756572842561,0.6471751412429377,0.05938756572842561,0.04915254237288135,0.05938756572842561,0.6103107344632768,0.05938756572842561,0.28672316384180785
31,0.06136715125270646,0.4259887005649717,0.06136715125270646,0.6799435028248587,0.06136715125270646,0.6471751412429377,0.06136715125270646,0.04915254237288135,0.06136715125270646,0.6103107344632768,0.06136715125270646,0.28262711864406775
32,0.06334673677698732,0.4259887005649717,0.06334673677698732,0.6799435028248587,0.06334673677698732,0.6471751412429377,0.06334673677698732,0.04915254237288135,0.06334673677698732,0.6103107344632768,0.06334673677698732,0.28262711864406775
33,0.06532632230126817,0.4218926553672316,0.06532632230126817,0.6799435028248587,0.06532632230126817,0.6471751412429377,0.06532632230126817,0.04915254237288135,0.06532632230126817,0.6144067796610169,0.06532632230126817,0.28262711864406775
34,0.06730590782554903,0.4218926553672316,0.06730590782554903,0.6799435028248587,0.06730590782554903,0.6471751412429377,0.06730590782554903,0.04915254237288135,0.06730590782554903,0.6144067796610169,0.06730590782554903,0.28262711864406775
35,0.06928549334982988,0.4218926553672316,0.06928549334982988,0.6799435028248587,0.06928549334982988,0.6471751412429377,0.06928549334982988,0.05324858757062146,0.06928549334982988,0.6144067796610169,0.06928549334982988,0.28262711864406775
36,0.07126507887411074,0.4218926553672316,0.07126507887411074,0.6799435028248587,0.07126507887411074,0.6471751412429377,0.07126507887411074,0.05324858757062146,0.07126507887411074,0.6144067796610169,0.07126507887411074,0.28262711864406775
37,0.07324466439839158,0.4218926553672316,0.07324466439839158,0.6799435028248587,0.07324466439839158,0.6471751412429377,0.07324466439839158,0.057344632768361575,0.07324466439839158,0.6144067796610169,0.07324466439839158,0.28262711864406775
38,0.07522424992267245,0.4218926553672316,0.07522424992267245,0.6799435028248587,0.07522424992267245,0.6471751412429377,0.07522424992267245,0.061440677966101684,0.07522424992267245,0.6144067796610169,0.07522424992267245,0.28262711864406775
39,0.07720383544695329,0.4218926553672316,0.07720383544695329,0.6799435028248587,0.07720383544695329,0.6471751412429377,0.07720383544695329,0.0655367231638418,0.07720383544695329,0.6144067796610169,0.07720383544695329,0.28262711864406775
40,0.07918342097123415,0.4218926553672316,0.07918342097123415,0.6758474576271185,0.07918342097123415,0.6471751412429377,0.07918342097123415,0.07782485875706213,0.07918342097123415,0.6144067796610169,0.07918342097123415,0.28262711864406775
41,0.081163006495515,0.4218926553672316,0.081163006495515,0.6758474576271185,0.081163006495515,0.6471751412429377,0.081163006495515,0.15564971751412426,0.081163006495515,0.6144067796610169,0.081163006495515,0.28262711864406775
42,0.08314259201979586,0.4218926553672316,0.08314259201979586,0.6758474576271185,0.08314259201979586,0.6471751412429377,0.08314259201979586,0.36864406779661013,0.08314259201979586,0.6144067796610169,0.08314259201979586,0.28262711864406775
43,0.08512217754407671,0.4218926553672316,0.08512217754407671,0.6758474576271185,0.08512217754407671,0.6471751412429377,0.08512217754407671,0.4218926553672316,0.08512217754407671,0.6144067796610169,0.08512217754407671,0.28262711864406775
44,0.08710176306835757,0.4218926553672316,0.08710176306835757,0.6758474576271185,0.08710176306835757,0.6471751412429377,0.08710176306835757,0.43008474576271183,0.08710176306835757,0.6144067796610169,0.08710176306835757,0.28262711864406775
45,0.08908134859263842,0.4218926553672316,0.08908134859263842,0.6758474576271185,0.08908134859263842,0.6512711864406778,0.08908134859263842,0.44237288135593217,0.08908134859263842,0.6144067796610169,0.08908134859263842,0.28262711864406775
46,0.09106093411691928,0.4218926553672316,0.09106093411691928,0.6758474576271185,0.09106093411691928,0.6512711864406778,0.09106093411691928,0.45056497175141236,0.09106093411691928,0.6144067796610169,0.09106093411691928,0.28262711864406775
47,0.09304051964120012,0.4218926553672316,0.09304051964120012,0.6758474576271185,0.09304051964120012,0.6512711864406778,0.09304051964120012,0.4587570621468926,0.09304051964120012,0.6144067796610169,0.09304051964120012,0.28262711864406775
48,0.09502010516548098,0.4218926553672316,0.09502010516548098,0.6758474576271185,0.09502010516548098,0.6512711864406778,0.09502010516548098,0.4628531073446327,0.09502010516548098,0.6144067796610169,0.09502010516548098,0.28262711864406775
49,0.09699969068976183,0.4218926553672316,0.09699969068976183,0.6799435028248587,0.09699969068976183,0.655367231638418,0.09699969068976183,0.47104519774011294,0.09699969068976183,0.6144067796610169,0.09699969068976183,0.28262711864406775
50,0.09897927621404269,0.4218926553672316,0.09897927621404269,0.6799435028248587,0.09897927621404269,0.655367231638418,0.09897927621404269,0.47514124293785304,0.09897927621404269,0.6144067796610169,0.09897927621404269,0.28672316384180785
51,0.10095886173832354,0.4218926553672316,0.10095886173832354,0.6799435028248587,0.10095886173832354,0.655367231638418,0.10095886173832354,0.4874293785310734,0.10095886173832354,0.6144067796610169,0.10095886173832354,0.28672316384180785
52,0.1029384472626044,0.4218926553672316,0.1029384472626044,0.6799435028248587,0.1029384472626044,0.6594632768361581,0.1029384472626044,0.4956214689265536,0.1029384472626044,0.6144067796610169,0.1029384472626044,0.28672316384180785
53,0.10491803278688525,0.4218926553672316,0.10491803278688525,0.6799435028248587,0.10491803278688525,0.6594632768361581,0.10491803278688525,0.5038135593220339,0.10491803278688525,0.6144067796610169,0.10491803278688525,0.290819209039548
54,0.10689761831116609,0.4218926553672316,0.10689761831116609,0.6840395480225988,0.10689761831116609,0.6594632768361581,0.10689761831116609,0.5038135593220339,0.10689761831116609,0.6144067796610169,0.10689761831116609,0.290819209039548
55,0.10887720383544695,0.4218926553672316,0.10887720383544695,0.6840395480225988,0.10887720383544695,0.6594632768361581,0.10887720383544695,0.5038135593220339,0.10887720383544695,0.6103107344632768,0.10887720383544695,0.290819209039548
56,0.1108567893597278,0.4218926553672316,0.1108567893597278,0.6840395480225988,0.1108567893597278,0.6594632768361581,0.1108567893597278,0.507909604519774,0.1108567893597278,0.6062146892655367,0.1108567893597278,0.290819209039548
57,0.11283637488400866,0.4218926553672316,0.11283637488400866,0.6840395480225988,0.11283637488400866,0.6594632768361581,0.11283637488400866,0.507909604519774,0.11283637488400866,0.5939265536723163,0.11283637488400866,0.2949152542372881
58,0.11481596040828951,0.4218926553672316,0.11481596040828951,0.6840395480225988,0.11481596040828951,0.6635593220338982,0.11481596040828951,0.507909604519774,0.11481596040828951,0.581638418079096,0.11481596040828951,0.2949152542372881
59,0.11679554593257037,0.4218926553672316,0.11679554593257037,0.6840395480225988,0.11679554593257037,0.6635593220338982,0.11679554593257037,0.507909604519774,0.11679554593257037,0.5939265536723163,0.11679554593257037,0.2949152542372881
60,0.11877513145685122,0.4218926553672316,0.11877513145685122,0.6840395480225988,0.11877513145685122,0.6635593220338982,0.11877513145685122,0.507909604519774,0.11877513145685122,0.6144067796610169,0.11877513145685122,0.2949152542372881
61,0.12075471698113208,0.4218926553672316,0.12075471698113208,0.6840395480225988,0.12075471698113208,0.6635593220338982,0.12075471698113208,0.507909604519774,0.12075471698113208,0.6225988700564971,0.12075471698113208,0.2990112994350282
62,0.12273430250541292,0.4218926553672316,0.12273430250541292,0.6840395480225988,0.12273430250541292,0.6635593220338982,0.12273430250541292,0.512005649717514,0.12273430250541292,0.6266949152542373,0.12273430250541292,0.2990112994350282
63,0.12471388802969378,0.4218926553672316,0.12471388802969378,0.6840395480225988,0.12471388802969378,0.6635593220338982,0.12471388802969378,0.5980225988700564,0.12471388802969378,0.6348870056497175,0.12471388802969378,0.2990112994350282
64,0.12669347355397464,0.4218926553672316,0.12669347355397464,0.6840395480225988,0.12669347355397464,0.6635593220338982,0.12669347355397464,0.5980225988700564,0.12669347355397464,0.6389830508474575,0.12669347355397464,0.30310734463276834
65,0.1286730590782555,0.4218926553672316,0.1286730590782555,0.6840395480225988,0.1286730590782555,0.6635593220338982,0.1286730590782555,0.5980225988700564,0.1286730590782555,0.6430790960451976,0.1286730590782555,0.30310734463276834
66,0.13065264460253634,0.4218926553672316,0.13065264460253634,0.6840395480225988,0.13065264460253634,0.6635593220338982,0.13065264460253634,0.5980225988700564,0.13065264460253634,0.6471751412429377,0.13065264460253634,0.30310734463276834
67,0.13263223012681719,0.4218926553672316,0.13263223012681719,0.6840395480225988,0.13263223012681719,0.6635593220338982,0.13263223012681719,0.5980225988700564,0.13263223012681719,0.6512711864406778,0.13263223012681719,0.30310734463276834
68,0.13461181565109806,0.4218926553672316,0.13461181565109806,0.6840395480225988,0.13461181565109806,0.6635593220338982,0.13461181565109806,0.5980225988700564,0.13461181565109806,0.6512711864406778,0.13461181565109806,0.30310734463276834
69,0.1365914011753789,0.4218926553672316,0.1365914011753789,0.6840395480225988,0.1365914011753789,0.6635593220338982,0.1365914011753789,0.5980225988700564,0.1365914011753789,0.655367231638418,0.1365914011753789,0.30310734463276834
70,0.13857098669965975,0.4218926553672316,0.13857098669965975,0.6840395480225988,0.13857098669965975,0.6635593220338982,0.13857098669965975,0.5980225988700564,0.13857098669965975,0.655367231638418,0.13857098669965975,0.30310734463276834
71,0.1405505722239406,0.4218926553672316,0.1405505722239406,0.6840395480225988,0.1405505722239406,0.6635593220338982,0.1405505722239406,0.5980225988700564,0.1405505722239406,0.6594632768361581,0.1405505722239406,0.30310734463276834
72,0.14253015774822148,0.4218926553672316,0.14253015774822148,0.6840395480225988,0.14253015774822148,0.6635593220338982,0.14253015774822148,0.5980225988700564,0.14253015774822148,0.6594632768361581,0.14253015774822148,0.30310734463276834
73,0.14450974327250232,0.4218926553672316,0.14450974327250232,0.6840395480225988,0.14450974327250232,0.6635593220338982,0.14450974327250232,0.5980225988700564,0.14450974327250232,0.6594632768361581,0.14450974327250232,0.30310734463276834
74,0.14648932879678317,0.4218926553672316,0.14648932879678317,0.6840395480225988,0.14648932879678317,0.6635593220338982,0.14648932879678317,0.5980225988700564,0.14648932879678317,0.6594632768361581,0.14648932879678317,0.30310734463276834
75,0.14846891432106402,0.4177966101694915,0.14846891432106402,0.6840395480225988,0.14846891432106402,0.6635593220338982,0.14846891432106402,0.5980225988700564,0.14846891432106402,0.6594632768361581,0.14846891432106402,0.30310734463276834
76,0.1504484998453449,0.4177966101694915,0.1504484998453449,0.6840395480225988,0.1504484998453449,0.6635593220338982,0.1504484998453449,0.5980225988700564,0.1504484998453449,0.6635593220338982,0.1504484998453449,0.30310734463276834
77,0.15242808536962574,0.40960451977401124,0.15242808536962574,0.6799435028248587,0.15242808536962574,0.6635593220338982,0.15242808536962574,0.5980225988700564,0.15242808536962574,0.6635593220338982,0.15242808536962574,0.30310734463276834
78,0.15440767089390658,0.38912429378531066,0.15440767089390658,0.6799435028248587,0.15440767089390658,0.6635593220338982,0.15440767089390658,0.5980225988700564,0.15440767089390658,0.6635593220338982,0.15440767089390658,0.30310734463276834
79,0.15638725641818743,0.327683615819209,0.15638725641818743,0.6799435028248587,0.15638725641818743,0.6635593220338982,0.15638725641818743,0.5980225988700564,0.15638725641818743,0.6676553672316383,0.15638725641818743,0.30310734463276834
80,0.1583668419424683,0.3194915254237288,0.1583668419424683,0.6799435028248587,0.1583668419424683,0.6635593220338982,0.1583668419424683,0.5980225988700564,0.1583668419424683,0.6717514124293784,0.1583668419424683,0.30310734463276834
81,0.16034642746674915,0.31129943502824853,0.16034642746674915,0.6799435028248587,0.16034642746674915,0.6635593220338982,0.16034642746674915,0.5980225988700564,0.16034642746674915,0.6758474576271185,0.16034642746674915,0.30310734463276834
82,0.16232601299103,0.23347457627118642,0.16232601299103,0.6799435028248587,0.16232601299103,0.6717514124293784,0.16232601299103,0.5980225988700564,0.16232601299103,0.6840395480225988,0.16232601299103,0.30310734463276834
83,0.16430559851531085,0.22528248587570618,0.16430559851531085,0.6799435028248587,0.16430559851531085,0.6717514124293784,0.16430559851531085,0.5980225988700564,0.16430559851531085,0.6881355932203389,0.16430559851531085,0.30310734463276834
84,0.16628518403959172,0.21709039548022596,0.16628518403959172,0.6799435028248587,0.16628518403959172,0.6717514124293784,0.16628518403959172,0.5980225988700564,0.16628518403959172,0.6963276836158191,0.16628518403959172,0.30310734463276834
85,0.16826476956387257,0.2007062146892655,0.16826476956387257,0.6799435028248587,0.16826476956387257,0.6717514124293784,0.16826476956387257,0.5980225988700564,0.16826476956387257,0.6963276836158191,0.16826476956387257,0.30310734463276834
86,0.17024435508815342,0.18432203389830507,0.17024435508815342,0.6799435028248587,0.17024435508815342,0.6717514124293784,0.17024435508815342,0.6021186440677966,0.17024435508815342,0.7004237288135592,0.17024435508815342,0.30310734463276834
87,0.17222394061243426,0.15564971751412426,0.17222394061243426,0.6799435028248587,0.17222394061243426,0.6717514124293784,0.17222394061243426,0.6021186440677966,0.17222394061243426,0.7004237288135592,0.17222394061243426,0.30310734463276834
88,0.17420352613671514,0.09011299435028247,0.17420352613671514,0.6799435028248587,0.17420352613671514,0.6717514124293784,0.17420352613671514,0.6021186440677966,0.17420352613671514,0.7045197740112994,0.17420352613671514,0.30310734463276834
89,0.17618311166099598,0.07782485875706213,0.17618311166099598,0.6799435028248587,0.17618311166099598,0.6717514124293784,0.17618311166099598,0.6021186440677966,0.17618311166099598,0.7045197740112994,0.17618311166099598,0.30310734463276834
90,0.17816269718527683,0.0655367231638418,0.17816269718527683,0.6799435028248587,0.17816269718527683,0.6717514124293784,0.17816269718527683,0.6021186440677966,0.17816269718527683,0.7086158192090395,0.17816269718527683,0.30310734463276834
91,0.18014228270955768,0.057344632768361575,0.18014228270955768,0.6799435028248587,0.18014228270955768,0.6717514124293784,0.18014228270955768,0.6021186440677966,0.18014228270955768,0.7086158192090395,0.18014228270955768,0.30310734463276834
92,0.18212186823383855,0.057344632768361575,0.18212186823383855,0.6799435028248587,0.18212186823383855,0.6717514124293784,0.18212186823383855,0.6021186440677966,0.18212186823383855,0.7086158192090395,0.18212186823383855,0.30310734463276834
93,0.1841014537581194,0.061440677966101684,0.1841014537581194,0.6799435028248587,0.1841014537581194,0.6717514124293784,0.1841014537581194,0.6021186440677966,0.1841014537581194,0.7127118644067796,0.1841014537581194,0.30310734463276834
94,0.18608103928240025,0.0655367231638418,0.18608103928240025,0.3522598870056497,0.18608103928240025,0.6717514124293784,0.18608103928240025,0.6021186440677966,0.18608103928240025,0.7127118644067796,0.18608103928240025,0.30310734463276834
95,0.1880606248066811,0.06963276836158191,0.1880606248066811,0.34816384180790955,0.1880606248066811,0.6717514124293784,0.1880606248066811,0.6021186440677966,0.1880606248066811,0.7127118644067796,0.1880606248066811,0.30310734463276834
96,0.19004021033096197,0.07372881355932202,0.19004021033096197,0.3317796610169491,0.19004021033096197,0.6717514124293784,0.19004021033096197,0.6021186440677966,0.19004021033096197,0.7127118644067796,0.19004021033096197,0.30310734463276834
97,0.19201979585524281,0.07782485875706213,0.19201979585524281,0.3153954802259887,0.19201979585524281,0.6717514124293784,0.19201979585524281,0.6021186440677966,0.19201979585524281,0.7127118644067796,0.19201979585524281,0.30310734463276834
98,0.19399938137952366,0.08192090395480225,0.19399938137952366,0.30720338983050843,0.19399938137952366,0.6717514124293784,0.19399938137952366,0.6021186440677966,0.19399938137952366,0.7127118644067796,0.19399938137952366,0.30310734463276834
99,0.1959789669038045,0.08192090395480225,0.1959789669038045,0.2990112994350282,0.1959789669038045,0.6717514124293784,0.1959789669038045,0.6021186440677966,0.1959789669038045,0.7127118644067796,0.1959789669038045,0.30310734463276834
100,0.19795855242808538,0.08601694915254236,0.19795855242808538,0.27853107344632766,0.19795855242808538,0.6717514124293784,0.19795855242808538,0.6021186440677966,0.19795855242808538,0.7127118644067796,0.19795855242808538,0.30310734463276834
101,0.19993813795236623,0.09011299435028247,0.19993813795236623,0.1310734463276836,0.19993813795236623,0.6717514124293784,0.19993813795236623,0.6021186440677966,0.19993813795236623,0.7127118644067796,0.19993813795236623,0.30310734463276834
102,0.20191772347664708,0.0983050847457627,0.20191772347664708,0.08192090395480225,0.20191772347664708,0.6717514124293784,0.20191772347664708,0.6021186440677966,0.20191772347664708,0.7127118644067796,0.20191772347664708,0.30310734463276834
103,0.20389730900092792,0.19251412429378528,0.20389730900092792,0.04915254237288135,0.20389730900092792,0.6676553672316383,0.20389730900092792,0.6021186440677966,0.20389730900092792,0.7127118644067796,0.20389730900092792,0.2990112994350282
104,0.2058768945252088,0.33997175141242936,0.2058768945252088,0.03686440677966101,0.2058768945252088,0.6676553672316383,0.2058768945252088,0.6021186440677966,0.2058768945252088,0.7127118644067796,0.2058768945252088,0.2990112994350282
105,0.20785648004948964,0.36454802259887004,0.20785648004948964,0.03686440677966101,0.20785648004948964,0.6635593220338982,0.20785648004948964,0.6021186440677966,0.20785648004948964,0.7127118644067796,0.20785648004948964,0.2990112994350282
106,0.2098360655737705,0.3768361581920903,0.2098360655737705,0.04096045197740113,0.2098360655737705,0.6676553672316383,0.2098360655737705,0.6021186440677966,0.2098360655737705,0.7127118644067796,0.2098360655737705,0.2949152542372881
107,0.21181565109805134,0.38912429378531066,0.21181565109805134,0.04915254237288135,0.21181565109805134,0.6676553672316383,0.21181565109805134,0.6021186440677966,0.21181565109805134,0.7127118644067796,0.21181565109805134,0.2949152542372881
108,0.21379523662233219,0.401412429378531,0.21379523662233219,0.05324858757062146,0.21379523662233219,0.6676553672316383,0.21379523662233219,0.6021186440677966,0.21379523662233219,0.7127118644067796,0.21379523662233219,0.2949152542372881
109,0.21577482214661306,0.40550847457627115,0.21577482214661306,0.057344632768361575,0.21577482214661306,0.6676553672316383,0.21577482214661306,0.6062146892655367,0.21577482214661306,0.7127118644067796,0.21577482214661306,0.290819209039548
110,0.2177544076708939,0.40960451977401124,0.2177544076708939,0.061440677966101684,0.2177544076708939,0.6676553672316383,0.2177544076708939,0.6062146892655367,0.2177544076708939,0.7127118644067796,0.2177544076708939,0.290819209039548
111,0.21973399319517475,0.41370056497175134,0.21973399319517475,0.0655367231638418,0.21973399319517475,0.6676553672316383,0.21973399319517475,0.6062146892655367,0.21973399319517475,0.7127118644067796,0.21973399319517475,0.290819209039548
112,0.2217135787194556,0.4177966101694915,0.2217135787194556,0.0655367231638418,0.2217135787194556,0.6676553672316383,0.2217135787194556,0.6103107344632768,0.2217135787194556,0.7086158192090395,0.2217135787194556,0.290819209039548
113,0.22369316424373648,0.4218926553672316,0.22369316424373648,0.07372881355932202,0.22369316424373648,0.6676553672316383,0.22369316424373648,0.6103107344632768,0.22369316424373648,0.7086158192090395,0.22369316424373648,0.290819209039548
114,0.22567274976801732,0.4259887005649717,0.22567274976801732,0.07782485875706213,0.22567274976801732,0.6676553672316383,0.22567274976801732,0.6103107344632768,0.22567274976801732,0.7045197740112994,0.22567274976801732,0.28672316384180785
115,0.22765233529229817,0.4259887005649717,0.22765233529229817,0.09420903954802258,0.22765233529229817,0.6676553672316383,0.22765233529229817,0.6103107344632768,0.22765233529229817,0.7045197740112994,0.22765233529229817,0.28672316384180785
116,0.22963192081657902,0.43008474576271183,0.22963192081657902,0.1310734463276836,0.22963192081657902,0.6676553672316383,0.22963192081657902,0.6144067796610169,0.22963192081657902,0.7004237288135592,0.22963192081657902,0.28672316384180785
117,0.2316115063408599,0.43008474576271183,0.2316115063408599,0.2703389830508474,0.2316115063408599,0.6676553672316383,0.2316115063408599,0.6144067796610169,0.2316115063408599,0.7004237288135592,0.2316115063408599,0.28672316384180785
118,0.23359109186514074,0.43008474576271183,0.23359109186514074,0.5161016949152541,0.23359109186514074,0.6676553672316383,0.23359109186514074,0.6144067796610169,0.23359109186514074,0.6963276836158191,0.23359109186514074,0.290819209039548
119,0.23557067738942158,0.43008474576271183,0.23557067738942158,0.5406779661016948,0.23557067738942158,0.6676553672316383,0.23557067738942158,0.6144067796610169,0.23557067738942158,0.6963276836158191,0.23557067738942158,0.290819209039548
120,0.23755026291370243,0.4341807909604519,0.23755026291370243,0.5570621468926553,0.23755026291370243,0.6676553672316383,0.23755026291370243,0.6144067796610169,0.23755026291370243,0.692231638418079,0.23755026291370243,0.290819209039548
121,0.2395298484379833,0.4341807909604519,0.2395298484379833,0.5652542372881355,0.2395298484379833,0.6676553672316383,0.2395298484379833,0.6144067796610169,0.2395298484379833,0.6881355932203389,0.2395298484379833,0.290819209039548
122,0.24150943396226415,0.438276836158192,0.24150943396226415,0.5693502824858756,0.24150943396226415,0.6676553672316383,0.24150943396226415,0.6144067796610169,0.24150943396226415,0.6840395480225988,0.24150943396226415,0.290819209039548
123,0.243489019486545,0.44237288135593217,0.243489019486545,0.5734463276836157,0.243489019486545,0.6676553672316383,0.243489019486545,0.6144067796610169,0.243489019486545,0.6799435028248587,0.243489019486545,0.290819209039548
124,0.24546860501082585,0.44237288135593217,0.24546860501082585,0.5734463276836157,0.24546860501082585,0.6676553672316383,0.24546860501082585,0.6144067796610169,0.24546860501082585,0.6717514124293784,0.24546860501082585,0.290819209039548
125,0.24744819053510672,0.44646892655367226,0.24744819053510672,0.5775423728813559,0.24744819053510672,0.6676553672316383,0.24744819053510672,0.618502824858757,0.24744819053510672,0.6676553672316383,0.24744819053510672,0.290819209039548
126,0.24942777605938757,0.45056497175141236,0.24942777605938757,0.5775423728813559,0.24942777605938757,0.6676553672316383,0.24942777605938757,0.618502824858757,0.24942777605938757,0.6676553672316383,0.24942777605938757,0.290819209039548
127,0.25140736158366844,0.45056497175141236,0.25140736158366844,0.5775423728813559,0.25140736158366844,0.6594632768361581,0.25140736158366844,0.618502824858757,0.25140736158366844,0.6635593220338982,0.25140736158366844,0.290819209039548
128,0.2533869471079493,0.4546610169491525,0.2533869471079493,0.5775423728813559,0.2533869471079493,0.5283898305084745,0.2533869471079493,0.618502824858757,0.2533869471079493,0.6594632768361581,0.2533869471079493,0.290819209039548
129,0.25536653263223014,0.4546610169491525,0.25536653263223014,0.581638418079096,0.25536653263223014,0.4259887005649717,0.25536653263223014,0.618502824858757,0.25536653263223014,0.6594632768361581,0.25536653263223014,0.290819209039548
130,0.257346118156511,0.4546610169491525,0.257346118156511,0.581638418079096,0.257346118156511,0.10240112994350281,0.257346118156511,0.618502824858757,0.257346118156511,0.655367231638418,0.257346118156511,0.290819209039548
131,0.25932570368079183,0.4546610169491525,0.25932570368079183,0.581638418079096,0.25932570368079183,0.10240112994350281,0.25932570368079183,0.618502824858757,0.25932570368079183,0.655367231638418,0.25932570368079183,0.290819209039548
132,0.2613052892050727,0.4546610169491525,0.2613052892050727,0.6840395480225988,0.2613052892050727,0.0983050847457627,0.2613052892050727,0.618502824858757,0.2613052892050727,0.655367231638418,0.2613052892050727,0.290819209039548
133,0.2632848747293535,0.4546610169491525,0.2632848747293535,0.6840395480225988,0.2632848747293535,0.0983050847457627,0.2632848747293535,0.618502824858757,0.2632848747293535,0.6512711864406778,0.2632848747293535,0.290819209039548
134,0.26526446025363437,0.4546610169491525,0.26526446025363437,0.6840395480225988,0.26526446025363437,0.09420903954802258,0.26526446025363437,0.618502824858757,0.26526446025363437,0.6471751412429377,0.26526446025363437,0.290819209039548
135,0.2672440457779153,0.4546610169491525,0.2672440457779153,0.6840395480225988,0.2672440457779153,0.08601694915254236,0.2672440457779153,0.618502824858757,0.2672440457779153,0.6471751412429377,0.2672440457779153,0.290819209039548
136,0.2692236313021961,0.4546610169491525,0.2692236313021961,0.6840395480225988,0.2692236313021961,0.06963276836158191,0.2692236313021961,0.618502824858757,0.2692236313021961,0.6430790960451976,0.2692236313021961,0.290819209039548
137,0.27120321682647697,0.4546610169491525,0.27120321682647697,0.6840395480225988,0.27120321682647697,0.04096045197740113,0.27120321682647697,0.618502824858757,0.27120321682647697,0.6389830508474575,0.27120321682647697,0.11878531073446326
138,0.2731828023507578,0.4546610169491525,0.2731828023507578,0.6840395480225988,0.2731828023507578,0.020480225988700564,0.2731828023507578,0.618502824858757,0.2731828023507578,0.6389830508474575,0.2731828023507578,0.01638418079096045
139,0.27516238787503866,0.4546610169491525,0.27516238787503866,0.6840395480225988,0.27516238787503866,0.012288135593220338,0.27516238787503866,0.618502824858757,0.27516238787503866,0.6348870056497175,0.27516238787503866,0.012288135593220338
140,0.2771419733993195,0.4546610169491525,0.2771419733993195,0.6840395480225988,0.2771419733993195,0.008192090395480226,0.2771419733993195,0.618502824858757,0.2771419733993195,0.6348870056497175,0.2771419733993195,0.008192090395480226
141,0.27912155892360035,0.4546610169491525,0.27912155892360035,0.6840395480225988,0.27912155892360035,0.008192090395480226,0.27912155892360035,0.6225988700564971,0.27912155892360035,0.6348870056497175,0.27912155892360035,0.004096045197740113
142,0.2811011444478812,0.4546610169491525,0.2811011444478812,0.6840395480225988,0.2811011444478812,0.008192090395480226,0.2811011444478812,0.6225988700564971,0.2811011444478812,0.6307909604519774,0.2811011444478812,0.004096045197740113
143,0.2830807299721621,0.4546610169491525,0.2830807299721621,0.6840395480225988,0.2830807299721621,0.012288135593220338,0.2830807299721621,0.6266949152542373,0.2830807299721621,0.6307909604519774,0.2830807299721621,0.004096045197740113
144,0.28506031549644295,0.4546610169491525,0.28506031549644295,0.6840395480225988,0.28506031549644295,0.012288135593220338,0.28506031549644295,0.6307909604519774,0.28506031549644295,0.6307909604519774,0.28506031549644295,0.008192090395480226
145,0.2870399010207238,0.4546610169491525,0.2870399010207238,0.6840395480225988,0.2870399010207238,0.01638418079096045,0.2870399010207238,0.6307909604519774,0.2870399010207238,0.6307909604519774,0.2870399010207238,0.008192090395480226
146,0.28901948654500464,0.4546610169491525,0.28901948654500464,0.6840395480225988,0.28901948654500464,0.020480225988700564,0.28901948654500464,0.6348870056497175,0.28901948654500464,0.6266949152542373,0.28901948654500464,0.008192090395480226
147,0.2909990720692855,0.45056497175141236,0.2909990720692855,0.6840395480225988,0.2909990720692855,0.024576271186440676,0.2909990720692855,0.6348870056497175,0.2909990720692855,0.6266949152542373,0.2909990720692855,0.008192090395480226
148,0.29297865759356634,0.45056497175141236,0.29297865759356634,0.6840395480225988,0.29297865759356634,0.028672316384180788,0.29297865759356634,0.6389830508474575,0.29297865759356634,0.6225988700564971,0.29297865759356634,0.008192090395480226
149,0.2949582431178472,0.45056497175141236,0.2949582431178472,0.6840395480225988,0.2949582431178472,0.04096045197740113,0.2949582431178472,0.6389830508474575,0.2949582431178472,0.6225988700564971,0.2949582431178472,0.012288135593220338
150,0.29693782864212803,0.45056497175141236,0.29693782864212803,0.6840395480225988,0.29693782864212803,0.06963276836158191,0.29693782864212803,0.6389830508474575,0.29693782864212803,0.6225988700564971,0.29693782864212803,0.01638418079096045
151,0.29891741416640893,0.45056497175141236,0.29891741416640893,0.6840395480225988,0.29891741416640893,0.0983050847457627,0.29891741416640893,0.6430790960451976,0.29891741416640893,0.6225988700564971,0.29891741416640893,0.020480225988700564
152,0.3008969996906898,0.45056497175141236,0.3008969996906898,0.6840395480225988,0.3008969996906898,0.20889830508474574,0.3008969996906898,0.6430790960451976,0.3008969996906898,0.618502824858757,0.3008969996906898,0.0327683615819209
153,0.30287658521497063,0.45056497175141236,0.30287658521497063,0.6840395480225988,0.30287658521497063,0.5201977401129942,0.30287658521497063,0.6471751412429377,0.30287658521497063,0.618502824858757,0.30287658521497063,0.13926553672316383
154,0.3048561707392515,0.45056497175141236,0.3048561707392515,0.6840395480225988,0.3048561707392515,0.5324858757062146,0.3048561707392515,0.6471751412429377,0.3048561707392515,0.618502824858757,0.3048561707392515,0.15155367231638417
155,0.3068357562635323,0.45056497175141236,0.3068357562635323,0.6840395480225988,0.3068357562635323,0.548870056497175,0.3068357562635323,0.6471751412429377,0.3068357562635323,0.618502824858757,0.3068357562635323,0.1638418079096045
156,0.30881534178781317,0.45056497175141236,0.30881534178781317,0.6840395480225988,0.30881534178781317,0.5570621468926553,0.30881534178781317,0.6471751412429377,0.30881534178781317,0.618502824858757,0.30881534178781317,0.18841807909604516
157,0.310794927312094,0.45056497175141236,0.310794927312094,0.6840395480225988,0.310794927312094,0.5611581920903954,0.310794927312094,0.6471751412429377,0.310794927312094,0.618502824858757,0.310794927312094,0.1966101694915254
158,0.31277451283637486,0.45056497175141236,0.31277451283637486,0.6881355932203389,0.31277451283637486,0.5693502824858756,0.31277451283637486,0.6471751412429377,0.31277451283637486,0.618502824858757,0.31277451283637486,0.20889830508474574
159,0.31475409836065577,0.45056497175141236,0.31475409836065577,0.6881355932203389,0.31475409836065577,0.5775423728813559,0.31475409836065577,0.6471751412429377,0.31475409836065577,0.618502824858757,0.31475409836065577,0.21709039548022596
160,0.3167336838849366,0.45056497175141236,0.3167336838849366,0.692231638418079,0.3167336838849366,0.6062146892655367,0.3167336838849366,0.6512711864406778,0.3167336838849366,0.618502824858757,0.3167336838849366,0.22528248587570618
161,0.31871326940921746,0.45056497175141236,0.31871326940921746,0.692231638418079,0.31871326940921746,0.6144067796610169,0.31871326940921746,0.6512711864406778,0.31871326940921746,0.618502824858757,0.31871326940921746,0.23347457627118642
162,0.3206928549334983,0.44646892655367226,0.3206928549334983,0.692231638418079,0.3206928549334983,0.6225988700564971,0.3206928549334983,0.6512711864406778,0.3206928549334983,0.618502824858757,0.3206928549334983,0.24166666666666664
163,0.32267244045777915,0.44646892655367226,0.32267244045777915,0.692231638418079,0.32267244045777915,0.6307909604519774,0.32267244045777915,0.655367231638418,0.32267244045777915,0.618502824858757,0.32267244045777915,0.253954802259887
164,0.32465202598206,0.44646892655367226,0.32465202598206,0.692231638418079,0.32465202598206,0.6389830508474575,0.32465202598206,0.655367231638418,0.32465202598206,0.618502824858757,0.32465202598206,0.2703389830508474
165,0.32663161150634085,0.44646892655367226,0.32663161150634085,0.692231638418079,0.32663161150634085,0.6430790960451976,0.32663161150634085,0.655367231638418,0.32663161150634085,0.618502824858757,0.32663161150634085,0.27853107344632766
166,0.3286111970306217,0.44237288135593217,0.3286111970306217,0.692231638418079,0.3286111970306217,0.6471751412429377,0.3286111970306217,0.6594632768361581,0.3286111970306217,0.618502824858757,0.3286111970306217,0.27853107344632766
167,0.33059078255490254,0.44237288135593217,0.33059078255490254,0.692231638418079,0.33059078255490254,0.6471751412429377,0.33059078255490254,0.6594632768361581,0.33059078255490254,0.618502824858757,0.33059078255490254,0.28262711864406775
168,0.33257036807918344,0.438276836158192,0.33257036807918344,0.692231638418079,0.33257036807918344,0.6471751412429377,0.33257036807918344,0.6594632768361581,0.33257036807918344,0.618502824858757,0.33257036807918344,0.28262711864406775
169,0.3345499536034643,0.4341807909604519,0.3345499536034643,0.692231638418079,0.3345499536034643,0.6512711864406778,0.3345499536034643,0.6635593220338982,0.3345499536034643,0.618502824858757,0.3345499536034643,0.28262711864406775
170,0.33652953912774514,0.438276836158192,0.33652953912774514,0.692231638418079,0.33652953912774514,0.6512711864406778,0.33652953912774514,0.6635593220338982,0.33652953912774514,0.6144067796610169,0.33652953912774514,0.28262711864406775
171,0.338509124652026,0.44237288135593217,0.338509124652026,0.692231638418079,0.338509124652026,0.6512711864406778,0.338509124652026,0.6676553672316383,0.338509124652026,0.6144067796610169,0.338509124652026,0.28672316384180785
172,0.34048871017630683,0.44646892655367226,0.34048871017630683,0.692231638418079,0.34048871017630683,0.6512711864406778,0.34048871017630683,0.6717514124293784,0.34048871017630683,0.6144067796610169,0.34048871017630683,0.28672316384180785
173,0.3424682957005877,0.44646892655367226,0.3424682957005877,0.692231638418079,0.3424682957005877,0.655367231638418,0.3424682957005877,0.6758474576271185,0.3424682957005877,0.6144067796610169,0.3424682957005877,0.28672316384180785
174,0.3444478812248685,0.44646892655367226,0.3444478812248685,0.692231638418079,0.3444478812248685,0.655367231638418,0.3444478812248685,0.6840395480225988,0.3444478812248685,0.6144067796610169,0.3444478812248685,0.28672316384180785
175,0.34642746674914937,0.44646892655367226,0.34642746674914937,0.692231638418079,0.34642746674914937,0.655367231638418,0.34642746674914937,0.6881355932203389,0.34642746674914937,0.6144067796610169,0.34642746674914937,0.28672316384180785
176,0.3484070522734303,0.44646892655367226,0.3484070522734303,0.692231638418079,0.3484070522734303,0.655367231638418,0.3484070522734303,0.6881355932203389,0.3484070522734303,0.6144067796610169,0.3484070522734303,0.28672316384180785
177,0.3503866377977111,0.44646892655367226,0.3503866377977111,0.692231638418079,0.3503866377977111,0.655367231638418,0.3503866377977111,0.6881355932203389,0.3503866377977111,0.6144067796610169,0.3503866377977111,0.28672316384180785
178,0.35236622332199197,0.44646892655367226,0.35236622332199197,0.692231638418079,0.35236622332199197,0.655367231638418,0.35236622332199197,0.6881355932203389,0.35236622332199197,0.6144067796610169,0.35236622332199197,0.28672316384180785
179,0.3543458088462728,0.44646892655367226,0.3543458088462728,0.692231638418079,0.3543458088462728,0.655367231638418,0.3543458088462728,0.6881355932203389,0.3543458088462728,0.6144067796610169,0.3543458088462728,0.28672316384180785
180,0.35632539437055366,0.44646892655367226,0.35632539437055366,0.6881355932203389,0.35632539437055366,0.655367231638418,0.35632539437055366,0.6881355932203389,0.35632539437055366,0.6144067796610169,0.35632539437055366,0.28672316384180785
181,0.3583049798948345,0.44646892655367226,0.3583049798948345,0.6881355932203389,0.3583049798948345,0.655367231638418,0.3583049798948345,0.6881355932203389,0.3583049798948345,0.6144067796610169,0.3583049798948345,0.28672316384180785
182,0.36028456541911535,0.44646892655367226,0.36028456541911535,0.6881355932203389,0.36028456541911535,0.655367231638418,0.36028456541911535,0.6881355932203389,0.36028456541911535,0.6144067796610169,0.36028456541911535,0.28672316384180785
183,0.3622641509433962,0.44646892655367226,0.3622641509433962,0.6881355932203389,0.3622641509433962,0.655367231638418,0.3622641509433962,0.6881355932203389,0.3622641509433962,0.6144067796610169,0.3622641509433962,0.28672316384180785
184,0.3642437364676771,0.44646892655367226,0.3642437364676771,0.6881355932203389,0.3642437364676771,0.655367231638418,0.3642437364676771,0.6881355932203389,0.3642437364676771,0.6144067796610169,0.3642437364676771,0.28672316384180785
185,0.36622332199195795,0.44646892655367226,0.36622332199195795,0.6881355932203389,0.36622332199195795,0.655367231638418,0.36622332199195795,0.6881355932203389,0.36622332199195795,0.6144067796610169,0.36622332199195795,0.28672316384180785
186,0.3682029075162388,0.44646892655367226,0.3682029075162388,0.6881355932203389,0.3682029075162388,0.655367231638418,0.3682029075162388,0.6881355932203389,0.3682029075162388,0.6144067796610169,0.3682029075162388,0.28672316384180785
187,0.37018249304051964,0.44646892655367226,0.37018249304051964,0.6881355932203389,0.37018249304051964,0.655367231638418,0.37018249304051964,0.6881355932203389,0.37018249304051964,0.6144067796610169,0.37018249304051964,0.28672316384180785
188,0.3721620785648005,0.44646892655367226,0.3721620785648005,0.6881355932203389,0.3721620785648005,0.655367231638418,0.3721620785648005,0.6881355932203389,0.3721620785648005,0.6144067796610169,0.3721620785648005,0.28672316384180785
189,0.37414166408908134,0.44646892655367226,0.37414166408908134,0.692231638418079,0.37414166408908134,0.655367231638418,0.37414166408908134,0.6881355932203389,0.37414166408908134,0.6144067796610169,0.37414166408908134,0.28672316384180785
190,0.3761212496133622,0.44646892655367226,0.3761212496133622,0.692231638418079,0.3761212496133622,0.655367231638418,0.3761212496133622,0.6881355932203389,0.3761212496133622,0.6144067796610169,0.3761212496133622,0.28672316384180785
191,0.37810083513764303,0.44237288135593217,0.37810083513764303,0.692231638418079,0.37810083513764303,0.655367231638418,0.37810083513764303,0.6881355932203389,0.37810083513764303,0.6144067796610169,0.37810083513764303,0.28672316384180785
192,0.38008042066192393,0.438276836158192,0.38008042066192393,0.692231638418079,0.38008042066192393,0.655367231638418,0.38008042066192393,0.6881355932203389,0.38008042066192393,0.6144067796610169,0.38008042066192393,0.28672316384180785
193,0.3820600061862048,0.438276836158192,0.3820600061862048,0.6963276836158191,0.3820600061862048,0.655367231638418,0.3820600061862048,0.6881355932203389,0.3820600061862048,0.6144067796610169,0.3820600061862048,0.28672316384180785
194,0.38403959171048563,0.4341807909604519,0.38403959171048563,0.6963276836158191,0.38403959171048563,0.655367231638418,0.38403959171048563,0.6881355932203389,0.38403959171048563,0.6144067796610169,0.38403959171048563,0.290819209039548
195,0.3860191772347665,0.4341807909604519,0.3860191772347665,0.7004237288135592,0.3860191772347665,0.655367231638418,0.3860191772347665,0.6717514124293784,0.3860191772347665,0.6103107344632768,0.3860191772347665,0.290819209039548
196,0.3879987627590473,0.4341807909604519,0.3879987627590473,0.7004237288135592,0.3879987627590473,0.6594632768361581,0.3879987627590473,0.6594632768361581,0.3879987627590473,0.6103107344632768,0.3879987627590473,0.2949152542372881
197,0.38997834828332817,0.43008474576271183,0.38997834828332817,0.7004237288135592,0.38997834828332817,0.6594632768361581,0.38997834828332817,0.655367231638418,0.38997834828332817,0.6103107344632768,0.38997834828332817,0.2990112994350282
198,0.391957933807609,0.43008474576271183,0.391957933807609,0.7004237288135592,0.391957933807609,0.6594632768361581,0.391957933807609,0.6676553672316383,0.391957933807609,0.6103107344632768,0.391957933807609,0.30310734463276834
199,0.39393751933188986,0.43008474576271183,0.39393751933188986,0.7004237288135592,0.39393751933188986,0.6594632768361581,0.39393751933188986,0.6717514124293784,0.39393751933188986,0.6103107344632768,0.39393751933188986,0.30310734463276834
200,0.39591710485617077,0.4259887005649717,0.39591710485617077,0.7004237288135592,0.39591710485617077,0.6594632768361581,0.39591710485617077,0.6717514124293784,0.39591710485617077,0.6144067796610169,0.39591710485617077,0.30310734463276834
201,0.3978966903804516,0.4259887005649717,0.3978966903804516,0.7004237288135592,0.3978966903804516,0.6594632768361581,0.3978966903804516,0.6717514124293784,0.3978966903804516,0.6144067796610169,0.3978966903804516,0.30310734463276834
202,0.39987627590473246,0.4218926553672316,0.39987627590473246,0.7004237288135592,0.39987627590473246,0.6594632768361581,0.39987627590473246,0.6717514124293784,0.39987627590473246,0.6144067796610169,0.39987627590473246,0.30310734463276834
203,0.4018558614290133,0.4218926553672316,0.4018558614290133,0.7004237288135592,0.4018558614290133,0.6594632768361581,0.4018558614290133,0.6717514124293784,0.4018558614290133,0.6144067796610169,0.4018558614290133,0.30310734463276834
204,0.40383544695329415,0.4177966101694915,0.40383544695329415,0.7004237288135592,0.40383544695329415,0.6594632768361581,0.40383544695329415,0.6717514124293784,0.40383544695329415,0.6144067796610169,0.40383544695329415,0.30310734463276834
205,0.405815032477575,0.4177966101694915,0.405815032477575,0.7004237288135592,0.405815032477575,0.6594632768361581,0.405815032477575,0.6717514124293784,0.405815032477575,0.6144067796610169,0.405815032477575,0.30310734463276834
206,0.40779461800185585,0.4177966101694915,0.40779461800185585,0.7004237288135592,0.40779461800185585,0.6594632768361581,0.40779461800185585,0.6717514124293784,0.40779461800185585,0.6144067796610169,0.40779461800185585,0.30310734463276834
207,0.4097742035261367,0.4177966101694915,0.4097742035261367,0.7004237288135592,0.4097742035261367,0.6594632768361581,0.4097742035261367,0.6717514124293784,0.4097742035261367,0.6144067796610169,0.4097742035261367,0.30310734463276834
208,0.4117537890504176,0.41370056497175134,0.4117537890504176,0.7004237288135592,0.4117537890504176,0.6594632768361581,0.4117537890504176,0.6717514124293784,0.4117537890504176,0.6144067796610169,0.4117537890504176,0.30310734463276834
209,0.41373337457469844,0.41370056497175134,0.41373337457469844,0.7004237288135592,0.41373337457469844,0.6594632768361581,0.41373337457469844,0.6717514124293784,0.41373337457469844,0.6144067796610169,0.41373337457469844,0.30310734463276834
210,0.4157129600989793,0.41370056497175134,0.4157129600989793,0.7004237288135592,0.4157129600989793,0.6594632768361581,0.4157129600989793,0.6717514124293784,0.4157129600989793,0.6144067796610169,0.4157129600989793,0.30310734463276834
211,0.41769254562326014,0.41370056497175134,0.41769254562326014,0.7004237288135592,0.41769254562326014,0.6594632768361581,0.41769254562326014,0.6717514124293784,0.41769254562326014,0.6144067796610169,0.41769254562326014,0.30310734463276834
212,0.419672131147541,0.41370056497175134,0.419672131147541,0.7004237288135592,0.419672131147541,0.6594632768361581,0.419672131147541,0.6717514124293784,0.419672131147541,0.6144067796610169,0.419672131147541,0.30310734463276834
213,0.42165171667182183,0.41370056497175134,0.42165171667182183,0.7004237288135592,0.42165171667182183,0.6594632768361581,0.42165171667182183,0.6717514124293784,0.42165171667182183,0.6144067796610169,0.42165171667182183,0.30310734463276834
214,0.4236313021961027,0.41370056497175134,0.4236313021961027,0.6963276836158191,0.4236313021961027,0.6594632768361581,0.4236313021961027,0.6717514124293784,0.4236313021961027,0.6144067796610169,0.4236313021961027,0.30310734463276834
215,0.4256108877203835,0.41370056497175134,0.4256108877203835,0.692231638418079,0.4256108877203835,0.6594632768361581,0.4256108877203835,0.6717514124293784,0.4256108877203835,0.6144067796610169,0.4256108877203835,0.30310734463276834
216,0.42759047324466437,0.41370056497175134,0.42759047324466437,0.6963276836158191,0.42759047324466437,0.6594632768361581,0.42759047324466437,0.6717514124293784,0.42759047324466437,0.6144067796610169,0.42759047324466437,0.30310734463276834
217,0.4295700587689453,0.41370056497175134,0.4295700587689453,0.7004237288135592,0.4295700587689453,0.6594632768361581,0.4295700587689453,0.6717514124293784,0.4295700587689453,0.6144067796610169,0.4295700587689453,0.30720338983050843
218,0.4315496442932261,0.41370056497175134,0.4315496442932261,0.7045197740112994,0.4315496442932261,0.655367231638418,0.4315496442932261,0.6635593220338982,0.4315496442932261,0.6144067796610169,0.4315496442932261,0.31129943502824853
219,0.43352922981750697,0.41370056497175134,0.43352922981750697,0.7086158192090395,0.43352922981750697,0.655367231638418,0.43352922981750697,0.6594632768361581,0.43352922981750697,0.6144067796610169,0.43352922981750697,0.3153954802259887
220,0.4355088153417878,0.41370056497175134,0.4355088153417878,0.7086158192090395,0.4355088153417878,0.655367231638418,0.4355088153417878,0.655367231638418,0.4355088153417878,0.6144067796610169,0.4355088153417878,0.3194915254237288
221,0.43748840086606866,0.41370056497175134,0.43748840086606866,0.7127118644067796,0.43748840086606866,0.655367231638418,0.43748840086606866,0.6512711864406778,0.43748840086606866,0.6144067796610169,0.43748840086606866,0.3194915254237288
222,0.4394679863903495,0.41370056497175134,0.4394679863903495,0.7127118644067796,0.4394679863903495,0.655367231638418,0.4394679863903495,0.6512711864406778,0.4394679863903495,0.6103107344632768,0.4394679863903495,0.32358757062146887
223,0.44144757191463035,0.41370056497175134,0.44144757191463035,0.7127118644067796,0.44144757191463035,0.655367231638418,0.44144757191463035,0.6512711864406778,0.44144757191463035,0.6062146892655367,0.44144757191463035,0.32358757062146887
224,0.4434271574389112,0.41370056497175134,0.4434271574389112,0.7168079096045197,0.4434271574389112,0.655367231638418,0.4434271574389112,0.6471751412429377,0.4434271574389112,0.5939265536723163,0.4434271574389112,0.32358757062146887
225,0.4454067429631921,0.41370056497175134,0.4454067429631921,0.7168079096045197,0.4454067429631921,0.655367231638418,0.4454067429631921,0.6471751412429377,0.4454067429631921,0.581638418079096,0.4454067429631921,0.32358757062146887
226,0.44738632848747295,0.41370056497175134,0.44738632848747295,0.7168079096045197,0.44738632848747295,0.655367231638418,0.44738632848747295,0.6471751412429377,0.44738632848747295,0.5775423728813559,0.44738632848747295,0.32358757062146887
227,0.4493659140117538,0.40960451977401124,0.4493659140117538,0.7168079096045197,0.4493659140117538,0.655367231638418,0.4493659140117538,0.6471751412429377,0.4493659140117538,0.5775423728813559,0.4493659140117538,0.32358757062146887
228,0.45134549953603464,0.40960451977401124,0.45134549953603464,0.7168079096045197,0.45134549953603464,0.655367231638418,0.45134549953603464,0.6471751412429377,0.45134549953603464,0.581638418079096,0.45134549953603464,0.32358757062146887
229,0.4533250850603155,0.40960451977401124,0.4533250850603155,0.7168079096045197,0.4533250850603155,0.655367231638418,0.4533250850603155,0.6430790960451976,0.4533250850603155,0.5980225988700564,0.4533250850603155,0.32358757062146887
230,0.45530467058459634,0.40960451977401124,0.45530467058459634,0.7168079096045197,0.45530467058459634,0.655367231638418,0.45530467058459634,0.6430790960451976,0.45530467058459634,0.6062146892655367,0.45530467058459634,0.32358757062146887
231,0.4572842561088772,0.40960451977401124,0.4572842561088772,0.7168079096045197,0.4572842561088772,0.655367231638418,0.4572842561088772,0.6430790960451976,0.4572842561088772,0.6103107344632768,0.4572842561088772,0.32358757062146887
232,0.45926384163315803,0.40960451977401124,0.45926384163315803,0.7168079096045197,0.45926384163315803,0.655367231638418,0.45926384163315803,0.6389830508474575,0.45926384163315803,0.6144067796610169,0.45926384163315803,0.32358757062146887
233,0.46124342715743893,0.40550847457627115,0.46124342715743893,0.7209039548022598,0.46124342715743893,0.655367231638418,0.46124342715743893,0.6389830508474575,0.46124342715743893,0.6144067796610169,0.46124342715743893,0.32358757062146887
234,0.4632230126817198,0.401412429378531,0.4632230126817198,0.7209039548022598,0.4632230126817198,0.655367231638418,0.4632230126817198,0.6348870056497175,0.4632230126817198,0.6144067796610169,0.4632230126817198,0.32358757062146887
235,0.46520259820600063,0.3973163841807909,0.46520259820600063,0.7209039548022598,0.46520259820600063,0.655367231638418,0.46520259820600063,0.6348870056497175,0.46520259820600063,0.6144067796610169,0.46520259820600063,0.32358757062146887
236,0.4671821837302815,0.3932203389830508,0.4671821837302815,0.7209039548022598,0.4671821837302815,0.655367231638418,0.4671821837302815,0.6307909604519774,0.4671821837302815,0.618502824858757,0.4671821837302815,0.32358757062146887
237,0.4691617692545623,0.38502824858757057,0.4691617692545623,0.7249999999999999,0.4691617692545623,0.655367231638418,0.4691617692545623,0.6307909604519774,0.4691617692545623,0.618502824858757,0.4691617692545623,0.32358757062146887
238,0.47114135477884317,0.38093220338983047,0.47114135477884317,0.7249999999999999,0.47114135477884317,0.655367231638418,0.47114135477884317,0.6266949152542373,0.47114135477884317,0.618502824858757,0.47114135477884317,0.32358757062146887
239,0.473120940303124,0.3768361581920903,0.473120940303124,0.7249999999999999,0.473120940303124,0.655367231638418,0.473120940303124,0.6225988700564971,0.473120940303124,0.618502824858757,0.473120940303124,0.32358757062146887
240,0.47510052582740486,0.3768361581920903,0.47510052582740486,0.7249999999999999,0.47510052582740486,0.655367231638418,0.47510052582740486,0.618502824858757,0.47510052582740486,0.618502824858757,0.47510052582740486,0.32358757062146887
241,0.47708011135168576,0.3727401129943502,0.47708011135168576,0.7249999999999999,0.47708011135168576,0.655367231638418,0.47708011135168576,0.6144067796610169,0.47708011135168576,0.618502824858757,0.47708011135168576,0.32358757062146887
242,0.4790596968759666,0.3727401129943502,0.4790596968759666,0.7290960451977401,0.4790596968759666,0.655367231638418,0.4790596968759666,0.6144067796610169,0.4790596968759666,0.618502824858757,0.4790596968759666,0.32358757062146887
243,0.48103928240024746,0.3727401129943502,0.48103928240024746,0.7290960451977401,0.48103928240024746,0.655367231638418,0.48103928240024746,0.6103107344632768,0.48103928240024746,0.618502824858757,0.48103928240024746,0.32358757062146887
244,0.4830188679245283,0.3727401129943502,0.4830188679245283,0.7290960451977401,0.4830188679245283,0.655367231638418,0.4830188679245283,0.6103107344632768,0.4830188679245283,0.618502824858757,0.4830188679245283,0.32358757062146887
245,0.48499845344880915,0.36864406779661013,0.48499845344880915,0.7290960451977401,0.48499845344880915,0.655367231638418,0.48499845344880915,0.6103107344632768,0.48499845344880915,0.618502824858757,0.48499845344880915,0.32358757062146887
246,0.48697803897309,0.36864406779661013,0.48697803897309,0.7290960451977401,0.48697803897309,0.655367231638418,0.48697803897309,0.6103107344632768,0.48697803897309,0.618502824858757,0.48697803897309,0.32358757062146887
247,0.48895762449737085,0.36864406779661013,0.48895762449737085,0.7290960451977401,0.48895762449737085,0.655367231638418,0.48895762449737085,0.6103107344632768,0.48895762449737085,0.618502824858757,0.48895762449737085,0.32358757062146887
248,0.4909372100216517,0.36864406779661013,0.4909372100216517,0.7331920903954802,0.4909372100216517,0.655367231638418,0.4909372100216517,0.6062146892655367,0.4909372100216517,0.618502824858757,0.4909372100216517,0.32358757062146887
249,0.4929167955459326,0.36864406779661013,0.4929167955459326,0.7331920903954802,0.4929167955459326,0.655367231638418,0.4929167955459326,0.6062146892655367,0.4929167955459326,0.618502824858757,0.4929167955459326,0.32358757062146887
250,0.49489638107021344,0.36864406779661013,0.49489638107021344,0.7372881355932203,0.49489638107021344,0.655367231638418,0.49489638107021344,0.6062146892655367,0.49489638107021344,0.618502824858757,0.49489638107021344,0.32358757062146887
251,0.4968759665944943,0.36864406779661013,0.4968759665944943,0.7413841807909604,0.4968759665944943,0.6512711864406778,0.4968759665944943,0.6062146892655367,0.4968759665944943,0.618502824858757,0.4968759665944943,0.32358757062146887
252,0.49885555211877514,0.36864406779661013,0.49885555211877514,0.7413841807909604,0.49885555211877514,0.6512711864406778,0.49885555211877514,0.6021186440677966,0.49885555211877514,0.618502824858757,0.49885555211877514,0.327683615819209
253,0.500835137643056,0.36864406779661013,0.500835137643056,0.7454802259887005,0.500835137643056,0.6512711864406778,0.500835137643056,0.5980225988700564,0.500835137643056,0.618502824858757,0.500835137643056,0.327683615819209
254,0.5028147231673369,0.36864406779661013,0.5028147231673369,0.7454802259887005,0.5028147231673369,0.6512711864406778,0.5028147231673369,0.5980225988700564,0.5028147231673369,0.618502824858757,0.5028147231673369,0.327683615819209
255,0.5047943086916177,0.36864406779661013,0.5047943086916177,0.7495762711864405,0.5047943086916177,0.6512711864406778,0.5047943086916177,0.6021186440677966,0.5047943086916177,0.618502824858757,0.5047943086916177,0.3317796610169491
256,0.5067738942158986,0.36864406779661013,0.5067738942158986,0.7495762711864405,0.5067738942158986,0.6512711864406778,0.5067738942158986,0.6021186440677966,0.5067738942158986,0.618502824858757,0.5067738942158986,0.3317796610169491
257,0.5087534797401794,0.36864406779661013,0.5087534797401794,0.7536723163841806,0.5087534797401794,0.6512711864406778,0.5087534797401794,0.6021186440677966,0.5087534797401794,0.618502824858757,0.5087534797401794,0.3317796610169491
258,0.5107330652644603,0.36864406779661013,0.5107330652644603,0.7536723163841806,0.5107330652644603,0.6512711864406778,0.5107330652644603,0.6021186440677966,0.5107330652644603,0.618502824858757,0.5107330652644603,0.3358757062146892
259,0.5127126507887411,0.3727401129943502,0.5127126507887411,0.7577683615819208,0.5127126507887411,0.655367231638418,0.5127126507887411,0.6021186440677966,0.5127126507887411,0.618502824858757,0.5127126507887411,0.3358757062146892
260,0.514692236313022,0.3727401129943502,0.514692236313022,0.7577683615819208,0.514692236313022,0.655367231638418,0.514692236313022,0.6021186440677966,0.514692236313022,0.618502824858757,0.514692236313022,0.33997175141242936
261,0.5166718218373029,0.3727401129943502,0.5166718218373029,0.7577683615819208,0.5166718218373029,0.655367231638418,0.5166718218373029,0.6021186440677966,0.5166718218373029,0.618502824858757,0.5166718218373029,0.34406779661016945
262,0.5186514073615837,0.3727401129943502,0.5186514073615837,0.7577683615819208,0.5186514073615837,0.655367231638418,0.5186514073615837,0.6062146892655367,0.5186514073615837,0.618502824858757,0.5186514073615837,0.34816384180790955
263,0.5206309928858646,0.3727401129943502,0.5206309928858646,0.7577683615819208,0.5206309928858646,0.655367231638418,0.5206309928858646,0.6062146892655367,0.5206309928858646,0.618502824858757,0.5206309928858646,0.3563559322033898
264,0.5226105784101454,0.3768361581920903,0.5226105784101454,0.7577683615819208,0.5226105784101454,0.6594632768361581,0.5226105784101454,0.6062146892655367,0.5226105784101454,0.618502824858757,0.5226105784101454,0.3604519774011299
265,0.5245901639344263,0.3768361581920903,0.5245901639344263,0.7577683615819208,0.5245901639344263,0.6594632768361581,0.5245901639344263,0.6062146892655367,0.5245901639344263,0.618502824858757,0.5245901639344263,0.36864406779661013
266,0.526569749458707,0.38093220338983047,0.526569749458707,0.7577683615819208,0.526569749458707,0.6635593220338982,0.526569749458707,0.6062146892655367,0.526569749458707,0.618502824858757,0.526569749458707,0.36864406779661013
267,0.528549334982988,0.38093220338983047,0.528549334982988,0.7577683615819208,0.528549334982988,0.6635593220338982,0.528549334982988,0.6062146892655367,0.528549334982988,0.618502824858757,0.528549334982988,0.3727401129943502
268,0.5305289205072687,0.38502824858757057,0.5305289205072687,0.7577683615819208,0.5305289205072687,0.6676553672316383,0.5305289205072687,0.6062146892655367,0.5305289205072687,0.618502824858757,0.5305289205072687,0.3768361581920903
269,0.5325085060315496,0.38912429378531066,0.5325085060315496,0.7577683615819208,0.5325085060315496,0.6676553672316383,0.5325085060315496,0.6062146892655367,0.5325085060315496,0.618502824858757,0.5325085060315496,0.3768361581920903
270,0.5344880915558305,0.3932203389830508,0.5344880915558305,0.7577683615819208,0.5344880915558305,0.6676553672316383,0.5344880915558305,0.6062146892655367,0.5344880915558305,0.618502824858757,0.5344880915558305,0.38093220338983047
271,0.5364676770801113,0.3973163841807909,0.5364676770801113,0.7577683615819208,0.5364676770801113,0.6717514124293784,0.5364676770801113,0.6062146892655367,0.5364676770801113,0.618502824858757,0.5364676770801113,0.38502824858757057
272,0.5384472626043922,0.401412429378531,0.5384472626043922,0.7577683615819208,0.5384472626043922,0.6717514124293784,0.5384472626043922,0.6062146892655367,0.5384472626043922,0.618502824858757,0.5384472626043922,0.38912429378531066
273,0.540426848128673,0.401412429378531,0.540426848128673,0.7577683615819208,0.540426848128673,0.6758474576271185,0.540426848128673,0.6062146892655367,0.540426848128673,0.618502824858757,0.540426848128673,0.3973163841807909
274,0.5424064336529539,0.40550847457627115,0.5424064336529539,0.7577683615819208,0.5424064336529539,0.6758474576271185,0.5424064336529539,0.6062146892655367,0.5424064336529539,0.618502824858757,0.5424064336529539,0.41370056497175134
275,0.5443860191772347,0.40550847457627115,0.5443860191772347,0.7577683615819208,0.5443860191772347,0.6799435028248587,0.5443860191772347,0.6062146892655367,0.5443860191772347,0.618502824858757,0.5443860191772347,0.4218926553672316
276,0.5463656047015156,0.40550847457627115,0.5463656047015156,0.7577683615819208,0.5463656047015156,0.6840395480225988,0.5463656047015156,0.6062146892655367,0.5463656047015156,0.618502824858757,0.5463656047015156,0.4259887005649717
277,0.5483451902257964,0.40550847457627115,0.5483451902257964,0.7577683615819208,0.5483451902257964,0.6881355932203389,0.5483451902257964,0.6062146892655367,0.5483451902257964,0.618502824858757,0.5483451902257964,0.43008474576271183
278,0.5503247757500773,0.40960451977401124,0.5503247757500773,0.7577683615819208,0.5503247757500773,0.6881355932203389,0.5503247757500773,0.6062146892655367,0.5503247757500773,0.618502824858757,0.5503247757500773,0.43008474576271183
279,0.5523043612743582,0.40960451977401124,0.5523043612743582,0.7536723163841806,0.5523043612743582,0.692231638418079,0.5523043612743582,0.6062146892655367,0.5523043612743582,0.618502824858757,0.5523043612743582,0.4341807909604519
280,0.554283946798639,0.40960451977401124,0.554283946798639,0.7495762711864405,0.554283946798639,0.692231638418079,0.554283946798639,0.6062146892655367,0.554283946798639,0.6144067796610169,0.554283946798639,0.438276836158192
281,0.5562635323229199,0.40960451977401124,0.5562635323229199,0.7454802259887005,0.5562635323229199,0.692231638418079,0.5562635323229199,0.6062146892655367,0.5562635323229199,0.6144067796610169,0.5562635323229199,0.44237288135593217
282,0.5582431178472007,0.41370056497175134,0.5582431178472007,0.7413841807909604,0.5582431178472007,0.692231638418079,0.5582431178472007,0.6062146892655367,0.5582431178472007,0.6144067796610169,0.5582431178472007,0.45056497175141236
283,0.5602227033714816,0.41370056497175134,0.5602227033714816,0.7372881355932203,0.5602227033714816,0.6963276836158191,0.5602227033714816,0.6062146892655367,0.5602227033714816,0.6103107344632768,0.5602227033714816,0.4546610169491525
284,0.5622022888957624,0.41370056497175134,0.5622022888957624,0.7331920903954802,0.5622022888957624,0.6963276836158191,0.5622022888957624,0.6062146892655367,0.5622022888957624,0.6144067796610169,0.5622022888957624,0.4587570621468926
285,0.5641818744200433,0.41370056497175134,0.5641818744200433,0.7290960451977401,0.5641818744200433,0.6963276836158191,0.5641818744200433,0.6062146892655367,0.5641818744200433,0.6144067796610169,0.5641818744200433,0.4628531073446327
286,0.5661614599443242,0.41370056497175134,0.5661614599443242,0.7290960451977401,0.5661614599443242,0.6963276836158191,0.5661614599443242,0.6062146892655367,0.5661614599443242,0.6144067796610169,0.5661614599443242,0.4628531073446327
287,0.568141045468605,0.41370056497175134,0.568141045468605,0.7290960451977401,0.568141045468605,0.6963276836158191,0.568141045468605,0.6062146892655367,0.568141045468605,0.6144067796610169,0.568141045468605,0.4628531073446327
288,0.5701206309928859,0.41370056497175134,0.5701206309928859,0.7249999999999999,0.5701206309928859,0.7004237288135592,0.5701206309928859,0.6062146892655367,0.5701206309928859,0.6144067796610169,0.5701206309928859,0.4628531073446327
289,0.5721002165171667,0.41370056497175134,0.5721002165171667,0.7249999999999999,0.5721002165171667,0.7004237288135592,0.5721002165171667,0.6062146892655367,0.5721002165171667,0.6144067796610169,0.5721002165171667,0.4628531073446327
290,0.5740798020414476,0.41370056497175134,0.5740798020414476,0.7249999999999999,0.5740798020414476,0.7004237288135592,0.5740798020414476,0.6021186440677966,0.5740798020414476,0.6144067796610169,0.5740798020414476,0.4628531073446327
291,0.5760593875657284,0.41370056497175134,0.5760593875657284,0.7249999999999999,0.5760593875657284,0.7004237288135592,0.5760593875657284,0.6021186440677966,0.5760593875657284,0.618502824858757,0.5760593875657284,0.4628531073446327
292,0.5780389730900093,0.41370056497175134,0.5780389730900093,0.7209039548022598,0.5780389730900093,0.7004237288135592,0.5780389730900093,0.6021186440677966,0.5780389730900093,0.618502824858757,0.5780389730900093,0.4628531073446327
293,0.5800185586142901,0.41370056497175134,0.5800185586142901,0.7209039548022598,0.5800185586142901,0.7004237288135592,0.5800185586142901,0.6021186440677966,0.5800185586142901,0.618502824858757,0.5800185586142901,0.4628531073446327
294,0.581998144138571,0.41370056497175134,0.581998144138571,0.7209039548022598,0.581998144138571,0.7045197740112994,0.581998144138571,0.6021186440677966,0.581998144138571,0.618502824858757,0.581998144138571,0.4628531073446327
295,0.5839777296628519,0.41370056497175134,0.5839777296628519,0.7209039548022598,0.5839777296628519,0.7045197740112994,0.5839777296628519,0.6021186440677966,0.5839777296628519,0.618502824858757,0.5839777296628519,0.4628531073446327
296,0.5859573151871327,0.41370056497175134,0.5859573151871327,0.7209039548022598,0.5859573151871327,0.7045197740112994,0.5859573151871327,0.6021186440677966,0.5859573151871327,0.6225988700564971,0.5859573151871327,0.4628531073446327
297,0.5879369007114136,0.41370056497175134,0.5879369007114136,0.7168079096045197,0.5879369007114136,0.7045197740112994,0.5879369007114136,0.6021186440677966,0.5879369007114136,0.6225988700564971,0.5879369007114136,0.4628531073446327
298,0.5899164862356944,0.41370056497175134,0.5899164862356944,0.7168079096045197,0.5899164862356944,0.7045197740112994,0.5899164862356944,0.6021186440677966,0.5899164862356944,0.6225988700564971,0.5899164862356944,0.4628531073446327
299,0.5918960717599753,0.41370056497175134,0.5918960717599753,0.7168079096045197,0.5918960717599753,0.7045197740112994,0.5918960717599753,0.6021186440677966,0.5918960717599753,0.6225988700564971,0.5918960717599753,0.4628531073446327
300,0.5938756572842561,0.41370056497175134,0.5938756572842561,0.7168079096045197,0.5938756572842561,0.7045197740112994,0.5938756572842561,0.6021186440677966,0.5938756572842561,0.6225988700564971,0.5938756572842561,0.4628531073446327
301,0.595855242808537,0.41370056497175134,0.595855242808537,0.7127118644067796,0.595855242808537,0.7045197740112994,0.595855242808537,0.6021186440677966,0.595855242808537,0.6225988700564971,0.595855242808537,0.4628531073446327
302,0.5978348283328179,0.41370056497175134,0.5978348283328179,0.7086158192090395,0.5978348283328179,0.7045197740112994,0.5978348283328179,0.6021186440677966,0.5978348283328179,0.6225988700564971,0.5978348283328179,0.4628531073446327
303,0.5998144138570987,0.41370056497175134,0.5998144138570987,0.7045197740112994,0.5998144138570987,0.7045197740112994,0.5998144138570987,0.6021186440677966,0.5998144138570987,0.6225988700564971,0.5998144138570987,0.4628531073446327
304,0.6017939993813796,0.41370056497175134,0.6017939993813796,0.7004237288135592,0.6017939993813796,0.7045197740112994,0.6017939993813796,0.6021186440677966,0.6017939993813796,0.6225988700564971,0.6017939993813796,0.4628531073446327
305,0.6037735849056604,0.41370056497175134,0.6037735849056604,0.692231638418079,0.6037735849056604,0.7045197740112994,0.6037735849056604,0.6021186440677966,0.6037735849056604,0.6225988700564971,0.6037735849056604,0.45056497175141236
306,0.6057531704299413,0.41370056497175134,0.6057531704299413,0.6881355932203389,0.6057531704299413,0.7045197740112994,0.6057531704299413,0.6021186440677966,0.6057531704299413,0.6225988700564971,0.6057531704299413,0.438276836158192
307,0.607732755954222,0.41370056497175134,0.607732755954222,0.6840395480225988,0.607732755954222,0.7045197740112994,0.607732755954222,0.6021186440677966,0.607732755954222,0.6225988700564971,0.607732755954222,0.43008474576271183
308,0.609712341478503,0.41370056497175134,0.609712341478503,0.6840395480225988,0.609712341478503,0.7045197740112994,0.609712341478503,0.6021186440677966,0.609712341478503,0.6225988700564971,0.609712341478503,0.43008474576271183
309,0.6116919270027837,0.41370056497175134,0.6116919270027837,0.6840395480225988,0.6116919270027837,0.7045197740112994,0.6116919270027837,0.6021186440677966,0.6116919270027837,0.6225988700564971,0.6116919270027837,0.4259887005649717
310,0.6136715125270646,0.41370056497175134,0.6136715125270646,0.6840395480225988,0.6136715125270646,0.7086158192090395,0.6136715125270646,0.6021186440677966,0.6136715125270646,0.6225988700564971,0.6136715125270646,0.4259887005649717
311,0.6156510980513455,0.41370056497175134,0.6156510980513455,0.6840395480225988,0.6156510980513455,0.7086158192090395,0.6156510980513455,0.6021186440677966,0.6156510980513455,0.6225988700564971,0.6156510980513455,0.4259887005649717
312,0.6176306835756263,0.41370056497175134,0.6176306835756263,0.6799435028248587,0.6176306835756263,0.7127118644067796,0.6176306835756263,0.6062146892655367,0.6176306835756263,0.6225988700564971,0.6176306835756263,0.4259887005649717
313,0.6196102690999072,0.41370056497175134,0.6196102690999072,0.6799435028248587,0.6196102690999072,0.7127118644067796,0.6196102690999072,0.6062146892655367,0.6196102690999072,0.6225988700564971,0.6196102690999072,0.4259887005649717
314,0.621589854624188,0.41370056497175134,0.621589854624188,0.6799435028248587,0.621589854624188,0.7127118644067796,0.621589854624188,0.6062146892655367,0.621589854624188,0.6225988700564971,0.621589854624188,0.4259887005649717
315,0.6235694401484689,0.41370056497175134,0.6235694401484689,0.6799435028248587,0.6235694401484689,0.7127118644067796,0.6235694401484689,0.6062146892655367,0.6235694401484689,0.6225988700564971,0.6235694401484689,0.4259887005649717
316,0.6255490256727497,0.41370056497175134,0.6255490256727497,0.6799435028248587,0.6255490256727497,0.7127118644067796,0.6255490256727497,0.6062146892655367,0.6255490256727497,0.6225988700564971,0.6255490256727497,0.4259887005649717
317,0.6275286111970306,0.40960451977401124,0.6275286111970306,0.6799435028248587,0.6275286111970306,0.7127118644067796,0.6275286111970306,0.6062146892655367,0.6275286111970306,0.6225988700564971,0.6275286111970306,0.4259887005649717
318,0.6295081967213115,0.40960451977401124,0.6295081967213115,0.6799435028248587,0.6295081967213115,0.7127118644067796,0.6295081967213115,0.6062146892655367,0.6295081967213115,0.6225988700564971,0.6295081967213115,0.4259887005649717
319,0.6314877822455923,0.40960451977401124,0.6314877822455923,0.6799435028248587,0.6314877822455923,0.7127118644067796,0.6314877822455923,0.6062146892655367,0.6314877822455923,0.6225988700564971,0.6314877822455923,0.4259887005649717
320,0.6334673677698732,0.40960451977401124,0.6334673677698732,0.6799435028248587,0.6334673677698732,0.7127118644067796,0.6334673677698732,0.6062146892655367,0.6334673677698732,0.6225988700564971,0.6334673677698732,0.4259887005649717
321,0.635446953294154,0.40960451977401124,0.635446953294154,0.6799435028248587,0.635446953294154,0.7127118644067796,0.635446953294154,0.6062146892655367,0.635446953294154,0.6225988700564971,0.635446953294154,0.4259887005649717
322,0.6374265388184349,0.40960451977401124,0.6374265388184349,0.6799435028248587,0.6374265388184349,0.7127118644067796,0.6374265388184349,0.6062146892655367,0.6374265388184349,0.618502824858757,0.6374265388184349,0.4218926553672316
323,0.6394061243427157,0.40960451977401124,0.6394061243427157,0.6799435028248587,0.6394061243427157,0.7127118644067796,0.6394061243427157,0.6062146892655367,0.6394061243427157,0.618502824858757,0.6394061243427157,0.4218926553672316
324,0.6413857098669966,0.40960451977401124,0.6413857098669966,0.6758474576271185,0.6413857098669966,0.7127118644067796,0.6413857098669966,0.6062146892655367,0.6413857098669966,0.618502824858757,0.6413857098669966,0.4177966101694915
325,0.6433652953912774,0.40960451977401124,0.6433652953912774,0.6758474576271185,0.6433652953912774,0.7127118644067796,0.6433652953912774,0.6062146892655367,0.6433652953912774,0.618502824858757,0.6433652953912774,0.41370056497175134
326,0.6453448809155583,0.40960451977401124,0.6453448809155583,0.6758474576271185,0.6453448809155583,0.7127118644067796,0.6453448809155583,0.6062146892655367,0.6453448809155583,0.618502824858757,0.6453448809155583,0.40960451977401124
327,0.6473244664398392,0.40960451977401124,0.6473244664398392,0.6758474576271185,0.6473244664398392,0.7127118644067796,0.6473244664398392,0.6062146892655367,0.6473244664398392,0.618502824858757,0.6473244664398392,0.40550847457627115
328,0.64930405196412,0.40960451977401124,0.64930405196412,0.6758474576271185,0.64930405196412,0.7127118644067796,0.64930405196412,0.6062146892655367,0.64930405196412,0.618502824858757,0.64930405196412,0.3973163841807909
329,0.6512836374884009,0.40960451977401124,0.6512836374884009,0.6758474576271185,0.6512836374884009,0.7127118644067796,0.6512836374884009,0.6062146892655367,0.6512836374884009,0.618502824858757,0.6512836374884009,0.3932203389830508
330,0.6532632230126817,0.40960451977401124,0.6532632230126817,0.6758474576271185,0.6532632230126817,0.7127118644067796,0.6532632230126817,0.6062146892655367,0.6532632230126817,0.618502824858757,0.6532632230126817,0.38912429378531066
331,0.6552428085369626,0.40960451977401124,0.6552428085369626,0.6758474576271185,0.6552428085369626,0.7127118644067796,0.6552428085369626,0.6021186440677966,0.6552428085369626,0.618502824858757,0.6552428085369626,0.38502824858757057
332,0.6572223940612434,0.40960451977401124,0.6572223940612434,0.6758474576271185,0.6572223940612434,0.7086158192090395,0.6572223940612434,0.6021186440677966,0.6572223940612434,0.618502824858757,0.6572223940612434,0.38093220338983047
333,0.6592019795855243,0.40960451977401124,0.6592019795855243,0.6758474576271185,0.6592019795855243,0.7086158192090395,0.6592019795855243,0.6021186440677966,0.6592019795855243,0.618502824858757,0.6592019795855243,0.38093220338983047
334,0.6611815651098051,0.40960451977401124,0.6611815651098051,0.6758474576271185,0.6611815651098051,0.7086158192090395,0.6611815651098051,0.6021186440677966,0.6611815651098051,0.618502824858757,0.6611815651098051,0.3768361581920903
335,0.663161150634086,0.40960451977401124,0.663161150634086,0.6758474576271185,0.663161150634086,0.7086158192090395,0.663161150634086,0.6021186440677966,0.663161150634086,0.618502824858757,0.663161150634086,0.3768361581920903
336,0.6651407361583669,0.40960451977401124,0.6651407361583669,0.6758474576271185,0.6651407361583669,0.7086158192090395,0.6651407361583669,0.6021186440677966,0.6651407361583669,0.618502824858757,0.6651407361583669,0.3727401129943502
337,0.6671203216826477,0.40960451977401124,0.6671203216826477,0.6758474576271185,0.6671203216826477,0.7045197740112994,0.6671203216826477,0.6021186440677966,0.6671203216826477,0.618502824858757,0.6671203216826477,0.36864406779661013
338,0.6690999072069286,0.40960451977401124,0.6690999072069286,0.6758474576271185,0.6690999072069286,0.7045197740112994,0.6690999072069286,0.6021186440677966,0.6690999072069286,0.618502824858757,0.6690999072069286,0.36454802259887004
339,0.6710794927312094,0.40960451977401124,0.6710794927312094,0.6758474576271185,0.6710794927312094,0.7045197740112994,0.6710794927312094,0.6021186440677966,0.6710794927312094,0.618502824858757,0.6710794927312094,0.3563559322033898
340,0.6730590782554903,0.40960451977401124,0.6730590782554903,0.6758474576271185,0.6730590782554903,0.7045197740112994,0.6730590782554903,0.6021186440677966,0.6730590782554903,0.6225988700564971,0.6730590782554903,0.34816384180790955
341,0.6750386637797711,0.40960451977401124,0.6750386637797711,0.6758474576271185,0.6750386637797711,0.7045197740112994,0.6750386637797711,0.6021186440677966,0.6750386637797711,0.6225988700564971,0.6750386637797711,0.34406779661016945
342,0.677018249304052,0.40960451977401124,0.677018249304052,0.6758474576271185,0.677018249304052,0.7045197740112994,0.677018249304052,0.6021186440677966,0.677018249304052,0.6225988700564971,0.677018249304052,0.33997175141242936
343,0.6789978348283329,0.40960451977401124,0.6789978348283329,0.6758474576271185,0.6789978348283329,0.7045197740112994,0.6789978348283329,0.6021186440677966,0.6789978348283329,0.6225988700564971,0.6789978348283329,0.3358757062146892
344,0.6809774203526137,0.40960451977401124,0.6809774203526137,0.6758474576271185,0.6809774203526137,0.7045197740112994,0.6809774203526137,0.6021186440677966,0.6809774203526137,0.6225988700564971,0.6809774203526137,0.3358757062146892
345,0.6829570058768946,0.40960451977401124,0.6829570058768946,0.6758474576271185,0.6829570058768946,0.7045197740112994,0.6829570058768946,0.6021186440677966,0.6829570058768946,0.6225988700564971,0.6829570058768946,0.3358757062146892
346,0.6849365914011754,0.40960451977401124,0.6849365914011754,0.6758474576271185,0.6849365914011754,0.7045197740112994,0.6849365914011754,0.6021186440677966,0.6849365914011754,0.6225988700564971,0.6849365914011754,0.3317796610169491
347,0.6869161769254563,0.40960451977401124,0.6869161769254563,0.6758474576271185,0.6869161769254563,0.7045197740112994,0.6869161769254563,0.6021186440677966,0.6869161769254563,0.6225988700564971,0.6869161769254563,0.3317796610169491
348,0.688895762449737,0.41370056497175134,0.688895762449737,0.6758474576271185,0.688895762449737,0.7004237288135592,0.688895762449737,0.6021186440677966,0.688895762449737,0.6225988700564971,0.688895762449737,0.3317796610169491
349,0.690875347974018,0.41370056497175134,0.690875347974018,0.6758474576271185,0.690875347974018,0.7004237288135592,0.690875347974018,0.6021186440677966,0.690875347974018,0.6225988700564971,0.690875347974018,0.3317796610169491
350,0.6928549334982987,0.41370056497175134,0.6928549334982987,0.6758474576271185,0.6928549334982987,0.7004237288135592,0.6928549334982987,0.6021186440677966,0.6928549334982987,0.6225988700564971,0.6928549334982987,0.3317796610169491
351,0.6948345190225796,0.41370056497175134,0.6948345190225796,0.6758474576271185,0.6948345190225796,0.7004237288135592,0.6948345190225796,0.6021186440677966,0.6948345190225796,0.6225988700564971,0.6948345190225796,0.3317796610169491
352,0.6968141045468605,0.41370056497175134,0.6968141045468605,0.6758474576271185,0.6968141045468605,0.6963276836158191,0.6968141045468605,0.6021186440677966,0.6968141045468605,0.6225988700564971,0.6968141045468605,0.3317796610169491
353,0.6987936900711413,0.41370056497175134,0.6987936900711413,0.6758474576271185,0.6987936900711413,0.6963276836158191,0.6987936900711413,0.6021186440677966,0.6987936900711413,0.6225988700564971,0.6987936900711413,0.3317796610169491
354,0.7007732755954222,0.41370056497175134,0.7007732755954222,0.6758474576271185,0.7007732755954222,0.6881355932203389,0.7007732755954222,0.6021186440677966,0.7007732755954222,0.6225988700564971,0.7007732755954222,0.3317796610169491
355,0.702752861119703,0.41370056497175134,0.702752861119703,0.6758474576271185,0.702752861119703,0.6799435028248587,0.702752861119703,0.6021186440677966,0.702752861119703,0.6225988700564971,0.702752861119703,0.327683615819209
356,0.7047324466439839,0.41370056497175134,0.7047324466439839,0.6758474576271185,0.7047324466439839,0.6758474576271185,0.7047324466439839,0.6021186440677966,0.7047324466439839,0.6225988700564971,0.7047324466439839,0.327683615819209
357,0.7067120321682647,0.41370056497175134,0.7067120321682647,0.6758474576271185,0.7067120321682647,0.6717514124293784,0.7067120321682647,0.6021186440677966,0.7067120321682647,0.6225988700564971,0.7067120321682647,0.327683615819209
358,0.7086916176925456,0.41370056497175134,0.7086916176925456,0.6758474576271185,0.7086916176925456,0.6676553672316383,0.7086916176925456,0.6021186440677966,0.7086916176925456,0.6225988700564971,0.7086916176925456,0.327683615819209
359,0.7106712032168265,0.41370056497175134,0.7106712032168265,0.6758474576271185,0.7106712032168265,0.6676553672316383,0.7106712032168265,0.6021186440677966,0.7106712032168265,0.6225988700564971,0.7106712032168265,0.327683615819209
360,0.7126507887411073,0.41370056497175134,0.7126507887411073,0.6758474576271185,0.7126507887411073,0.6676553672316383,0.7126507887411073,0.6021186440677966,0.7126507887411073,0.618502824858757,0.7126507887411073,0.327683615819209
361,0.7146303742653882,0.41370056497175134,0.7146303742653882,0.6758474576271185,0.7146303742653882,0.6676553672316383,0.7146303742653882,0.6021186440677966,0.7146303742653882,0.618502824858757,0.7146303742653882,0.327683615819209
362,0.716609959789669,0.41370056497175134,0.716609959789669,0.6758474576271185,0.716609959789669,0.6635593220338982,0.716609959789669,0.6021186440677966,0.716609959789669,0.618502824858757,0.716609959789669,0.32358757062146887
363,0.7185895453139499,0.41370056497175134,0.7185895453139499,0.6758474576271185,0.7185895453139499,0.6635593220338982,0.7185895453139499,0.6021186440677966,0.7185895453139499,0.618502824858757,0.7185895453139499,0.32358757062146887
364,0.7205691308382307,0.41370056497175134,0.7205691308382307,0.6758474576271185,0.7205691308382307,0.6635593220338982,0.7205691308382307,0.6021186440677966,0.7205691308382307,0.618502824858757,0.7205691308382307,0.3194915254237288
365,0.7225487163625116,0.41370056497175134,0.7225487163625116,0.6758474576271185,0.7225487163625116,0.6635593220338982,0.7225487163625116,0.6021186440677966,0.7225487163625116,0.618502824858757,0.7225487163625116,0.3194915254237288
366,0.7245283018867924,0.41370056497175134,0.7245283018867924,0.6758474576271185,0.7245283018867924,0.6594632768361581,0.7245283018867924,0.6021186440677966,0.7245283018867924,0.618502824858757,0.7245283018867924,0.3153954802259887
367,0.7265078874110733,0.41370056497175134,0.7265078874110733,0.6758474576271185,0.7265078874110733,0.6594632768361581,0.7265078874110733,0.6021186440677966,0.7265078874110733,0.618502824858757,0.7265078874110733,0.3153954802259887
368,0.7284874729353542,0.41370056497175134,0.7284874729353542,0.6758474576271185,0.7284874729353542,0.655367231638418,0.7284874729353542,0.6021186440677966,0.7284874729353542,0.618502824858757,0.7284874729353542,0.3153954802259887
369,0.730467058459635,0.41370056497175134,0.730467058459635,0.6758474576271185,0.730467058459635,0.655367231638418,0.730467058459635,0.6021186440677966,0.730467058459635,0.618502824858757,0.730467058459635,0.31129943502824853
370,0.7324466439839159,0.41370056497175134,0.7324466439839159,0.6758474576271185,0.7324466439839159,0.655367231638418,0.7324466439839159,0.6021186440677966,0.7324466439839159,0.618502824858757,0.7324466439839159,0.31129943502824853
371,0.7344262295081967,0.41370056497175134,0.7344262295081967,0.6758474576271185,0.7344262295081967,0.655367231638418,0.7344262295081967,0.6021186440677966,0.7344262295081967,0.618502824858757,0.7344262295081967,0.31129943502824853
372,0.7364058150324776,0.41370056497175134,0.7364058150324776,0.6758474576271185,0.7364058150324776,0.655367231638418,0.7364058150324776,0.6021186440677966,0.7364058150324776,0.618502824858757,0.7364058150324776,0.31129943502824853
373,0.7383854005567584,0.4177966101694915,0.7383854005567584,0.6758474576271185,0.7383854005567584,0.655367231638418,0.7383854005567584,0.6021186440677966,0.7383854005567584,0.618502824858757,0.7383854005567584,0.31129943502824853
374,0.7403649860810393,0.4177966101694915,0.7403649860810393,0.6758474576271185,0.7403649860810393,0.655367231638418,0.7403649860810393,0.6021186440677966,0.7403649860810393,0.6225988700564971,0.7403649860810393,0.30720338983050843
375,0.7423445716053202,0.4177966101694915,0.7423445716053202,0.6758474576271185,0.7423445716053202,0.655367231638418,0.7423445716053202,0.6021186440677966,0.7423445716053202,0.6225988700564971,0.7423445716053202,0.30720338983050843
376,0.744324157129601,0.4177966101694915,0.744324157129601,0.6758474576271185,0.744324157129601,0.655367231638418,0.744324157129601,0.6021186440677966,0.744324157129601,0.6225988700564971,0.744324157129601,0.31129943502824853
377,0.7463037426538819,0.4177966101694915,0.7463037426538819,0.6758474576271185,0.7463037426538819,0.655367231638418,0.7463037426538819,0.6021186440677966,0.7463037426538819,0.6225988700564971,0.7463037426538819,0.31129943502824853
378,0.7482833281781627,0.4177966101694915,0.7482833281781627,0.6758474576271185,0.7482833281781627,0.655367231638418,0.7482833281781627,0.6021186440677966,0.7482833281781627,0.6225988700564971,0.7482833281781627,0.3153954802259887
379,0.7502629137024436,0.4177966101694915,0.7502629137024436,0.6758474576271185,0.7502629137024436,0.655367231638418,0.7502629137024436,0.6021186440677966,0.7502629137024436,0.6225988700564971,0.7502629137024436,0.3153954802259887
380,0.7522424992267244,0.4177966101694915,0.7522424992267244,0.6758474576271185,0.7522424992267244,0.655367231638418,0.7522424992267244,0.6021186440677966,0.7522424992267244,0.6225988700564971,0.7522424992267244,0.3194915254237288
381,0.7542220847510053,0.4177966101694915,0.7542220847510053,0.6758474576271185,0.7542220847510053,0.655367231638418,0.7542220847510053,0.6021186440677966,0.7542220847510053,0.6225988700564971,0.7542220847510053,0.3194915254237288
382,0.7562016702752861,0.4177966101694915,0.7562016702752861,0.6758474576271185,0.7562016702752861,0.655367231638418,0.7562016702752861,0.6021186440677966,0.7562016702752861,0.6225988700564971,0.7562016702752861,0.3194915254237288
383,0.758181255799567,0.4177966101694915,0.758181255799567,0.6758474576271185,0.758181255799567,0.655367231638418,0.758181255799567,0.6021186440677966,0.758181255799567,0.6225988700564971,0.758181255799567,0.3194915254237288
384,0.7601608413238479,0.4177966101694915,0.7601608413238479,0.6758474576271185,0.7601608413238479,0.655367231638418,0.7601608413238479,0.6021186440677966,0.7601608413238479,0.6225988700564971,0.7601608413238479,0.3194915254237288
385,0.7621404268481287,0.4177966101694915,0.7621404268481287,0.6717514124293784,0.7621404268481287,0.6594632768361581,0.7621404268481287,0.6021186440677966,0.7621404268481287,0.6225988700564971,0.7621404268481287,0.3194915254237288
386,0.7641200123724096,0.4177966101694915,0.7641200123724096,0.6717514124293784,0.7641200123724096,0.6594632768361581,0.7641200123724096,0.6021186440677966,0.7641200123724096,0.6225988700564971,0.7641200123724096,0.3194915254237288
387,0.7660995978966904,0.4177966101694915,0.7660995978966904,0.6717514124293784,0.7660995978966904,0.6594632768361581,0.7660995978966904,0.6021186440677966,0.7660995978966904,0.6225988700564971,0.7660995978966904,0.3194915254237288
388,0.7680791834209713,0.4177966101694915,0.7680791834209713,0.6717514124293784,0.7680791834209713,0.6594632768361581,0.7680791834209713,0.6021186440677966,0.7680791834209713,0.6225988700564971,0.7680791834209713,0.3194915254237288
389,0.770058768945252,0.4177966101694915,0.770058768945252,0.6717514124293784,0.770058768945252,0.6594632768361581,0.770058768945252,0.6021186440677966,0.770058768945252,0.6225988700564971,0.770058768945252,0.3194915254237288
390,0.772038354469533,0.4177966101694915,0.772038354469533,0.6717514124293784,0.772038354469533,0.6594632768361581,0.772038354469533,0.6021186440677966,0.772038354469533,0.6225988700564971,0.772038354469533,0.3194915254237288
391,0.7740179399938137,0.4177966101694915,0.7740179399938137,0.6717514124293784,0.7740179399938137,0.6635593220338982,0.7740179399938137,0.6021186440677966,0.7740179399938137,0.6225988700564971,0.7740179399938137,0.3194915254237288
392,0.7759975255180946,0.4177966101694915,0.7759975255180946,0.6717514124293784,0.7759975255180946,0.6635593220338982,0.7759975255180946,0.6021186440677966,0.7759975255180946,0.6225988700564971,0.7759975255180946,0.3194915254237288
393,0.7779771110423755,0.4177966101694915,0.7779771110423755,0.6717514124293784,0.7779771110423755,0.6635593220338982,0.7779771110423755,0.6021186440677966,0.7779771110423755,0.6225988700564971,0.7779771110423755,0.3194915254237288
394,0.7799566965666563,0.4177966101694915,0.7799566965666563,0.6758474576271185,0.7799566965666563,0.6635593220338982,0.7799566965666563,0.6021186440677966,0.7799566965666563,0.6225988700564971,0.7799566965666563,0.3194915254237288
395,0.7819362820909372,0.4177966101694915,0.7819362820909372,0.6758474576271185,0.7819362820909372,0.6635593220338982,0.7819362820909372,0.6062146892655367,0.7819362820909372,0.618502824858757,0.7819362820909372,0.3194915254237288
396,0.783915867615218,0.4177966101694915,0.783915867615218,0.6758474576271185,0.783915867615218,0.6676553672316383,0.783915867615218,0.6062146892655367,0.783915867615218,0.618502824858757,0.783915867615218,0.3194915254237288
397,0.7858954531394989,0.4177966101694915,0.7858954531394989,0.6758474576271185,0.7858954531394989,0.6676553672316383,0.7858954531394989,0.6062146892655367,0.7858954531394989,0.618502824858757,0.7858954531394989,0.3194915254237288
398,0.7878750386637797,0.4177966101694915,0.7878750386637797,0.6758474576271185,0.7878750386637797,0.6676553672316383,0.7878750386637797,0.6062146892655367,0.7878750386637797,0.618502824858757,0.7878750386637797,0.3194915254237288
399,0.7898546241880606,0.4177966101694915,0.7898546241880606,0.6758474576271185,0.7898546241880606,0.6676553672316383,0.7898546241880606,0.6062146892655367,0.7898546241880606,0.618502824858757,0.7898546241880606,0.3153954802259887
400,0.7918342097123415,0.4177966101694915,0.7918342097123415,0.6758474576271185,0.7918342097123415,0.6676553672316383,0.7918342097123415,0.6103107344632768,0.7918342097123415,0.618502824858757,0.7918342097123415,0.3153954802259887
401,0.7938137952366223,0.4177966101694915,0.7938137952366223,0.6758474576271185,0.7938137952366223,0.6676553672316383,0.7938137952366223,0.6103107344632768,0.7938137952366223,0.618502824858757,0.7938137952366223,0.3153954802259887
402,0.7957933807609032,0.4177966101694915,0.7957933807609032,0.6758474576271185,0.7957933807609032,0.6676553672316383,0.7957933807609032,0.6103107344632768,0.7957933807609032,0.618502824858757,0.7957933807609032,0.31129943502824853
403,0.797772966285184,0.4177966101694915,0.797772966285184,0.6758474576271185,0.797772966285184,0.6676553672316383,0.797772966285184,0.6103107344632768,0.797772966285184,0.618502824858757,0.797772966285184,0.31129943502824853
404,0.7997525518094649,0.4177966101694915,0.7997525518094649,0.6758474576271185,0.7997525518094649,0.6676553672316383,0.7997525518094649,0.6103107344632768,0.7997525518094649,0.618502824858757,0.7997525518094649,0.31129943502824853
405,0.8017321373337457,0.4218926553672316,0.8017321373337457,0.6758474576271185,0.8017321373337457,0.6676553672316383,0.8017321373337457,0.6103107344632768,0.8017321373337457,0.618502824858757,0.8017321373337457,0.30720338983050843
406,0.8037117228580266,0.4218926553672316,0.8037117228580266,0.6758474576271185,0.8037117228580266,0.6676553672316383,0.8037117228580266,0.6103107344632768,0.8037117228580266,0.618502824858757,0.8037117228580266,0.30720338983050843
407,0.8056913083823074,0.4218926553672316,0.8056913083823074,0.6758474576271185,0.8056913083823074,0.6676553672316383,0.8056913083823074,0.6103107344632768,0.8056913083823074,0.618502824858757,0.8056913083823074,0.30310734463276834
408,0.8076708939065883,0.4218926553672316,0.8076708939065883,0.6758474576271185,0.8076708939065883,0.6676553672316383,0.8076708939065883,0.6103107344632768,0.8076708939065883,0.618502824858757,0.8076708939065883,0.2990112994350282
409,0.8096504794308692,0.4218926553672316,0.8096504794308692,0.6758474576271185,0.8096504794308692,0.6676553672316383,0.8096504794308692,0.6103107344632768,0.8096504794308692,0.618502824858757,0.8096504794308692,0.2990112994350282
410,0.81163006495515,0.4218926553672316,0.81163006495515,0.6758474576271185,0.81163006495515,0.6676553672316383,0.81163006495515,0.6103107344632768,0.81163006495515,0.618502824858757,0.81163006495515,0.2949152542372881
411,0.8136096504794309,0.4218926553672316,0.8136096504794309,0.6758474576271185,0.8136096504794309,0.6676553672316383,0.8136096504794309,0.6103107344632768,0.8136096504794309,0.618502824858757,0.8136096504794309,0.2949152542372881
412,0.8155892360037117,0.4218926553672316,0.8155892360037117,0.6758474576271185,0.8155892360037117,0.6676553672316383,0.8155892360037117,0.6103107344632768,0.8155892360037117,0.618502824858757,0.8155892360037117,0.2949152542372881
413,0.8175688215279926,0.4218926553672316,0.8175688215279926,0.6758474576271185,0.8175688215279926,0.6676553672316383,0.8175688215279926,0.6103107344632768,0.8175688215279926,0.618502824858757,0.8175688215279926,0.290819209039548
414,0.8195484070522734,0.4218926553672316,0.8195484070522734,0.6758474576271185,0.8195484070522734,0.6676553672316383,0.8195484070522734,0.6103107344632768,0.8195484070522734,0.618502824858757,0.8195484070522734,0.290819209039548
415,0.8215279925765543,0.4218926553672316,0.8215279925765543,0.6758474576271185,0.8215279925765543,0.6635593220338982,0.8215279925765543,0.6103107344632768,0.8215279925765543,0.618502824858757,0.8215279925765543,0.290819209039548
416,0.8235075781008352,0.4218926553672316,0.8235075781008352,0.6758474576271185,0.8235075781008352,0.6635593220338982,0.8235075781008352,0.6103107344632768,0.8235075781008352,0.618502824858757,0.8235075781008352,0.290819209039548
417,0.825487163625116,0.4218926553672316,0.825487163625116,0.6758474576271185,0.825487163625116,0.6635593220338982,0.825487163625116,0.6103107344632768,0.825487163625116,0.618502824858757,0.825487163625116,0.290819209039548
418,0.8274667491493969,0.4218926553672316,0.8274667491493969,0.6758474576271185,0.8274667491493969,0.6635593220338982,0.8274667491493969,0.6103107344632768,0.8274667491493969,0.618502824858757,0.8274667491493969,0.290819209039548
419,0.8294463346736777,0.4218926553672316,0.8294463346736777,0.6758474576271185,0.8294463346736777,0.6635593220338982,0.8294463346736777,0.6103107344632768,0.8294463346736777,0.6225988700564971,0.8294463346736777,0.290819209039548
420,0.8314259201979586,0.4218926553672316,0.8314259201979586,0.6758474576271185,0.8314259201979586,0.6635593220338982,0.8314259201979586,0.6103107344632768,0.8314259201979586,0.6225988700564971,0.8314259201979586,0.290819209039548
421,0.8334055057222394,0.4218926553672316,0.8334055057222394,0.6758474576271185,0.8334055057222394,0.6635593220338982,0.8334055057222394,0.6103107344632768,0.8334055057222394,0.6225988700564971,0.8334055057222394,0.290819209039548
422,0.8353850912465203,0.4218926553672316,0.8353850912465203,0.6758474576271185,0.8353850912465203,0.6676553672316383,0.8353850912465203,0.6062146892655367,0.8353850912465203,0.6225988700564971,0.8353850912465203,0.290819209039548
423,0.8373646767708011,0.4218926553672316,0.8373646767708011,0.6758474576271185,0.8373646767708011,0.6676553672316383,0.8373646767708011,0.6062146892655367,0.8373646767708011,0.6225988700564971,0.8373646767708011,0.290819209039548
424,0.839344262295082,0.4218926553672316,0.839344262295082,0.6758474576271185,0.839344262295082,0.6676553672316383,0.839344262295082,0.6062146892655367,0.839344262295082,0.6225988700564971,0.839344262295082,0.290819209039548
425,0.8413238478193629,0.4177966101694915,0.8413238478193629,0.6758474576271185,0.8413238478193629,0.6717514124293784,0.8413238478193629,0.6062146892655367,0.8413238478193629,0.6225988700564971,0.8413238478193629,0.290819209039548
426,0.8433034333436437,0.4177966101694915,0.8433034333436437,0.6799435028248587,0.8433034333436437,0.6717514124293784,0.8433034333436437,0.6062146892655367,0.8433034333436437,0.6225988700564971,0.8433034333436437,0.290819209039548
427,0.8452830188679246,0.41370056497175134,0.8452830188679246,0.6799435028248587,0.8452830188679246,0.6717514124293784,0.8452830188679246,0.6062146892655367,0.8452830188679246,0.6225988700564971,0.8452830188679246,0.290819209039548
428,0.8472626043922054,0.41370056497175134,0.8472626043922054,0.6799435028248587,0.8472626043922054,0.6717514124293784,0.8472626043922054,0.6062146892655367,0.8472626043922054,0.6225988700564971,0.8472626043922054,0.290819209039548
429,0.8492421899164863,0.40960451977401124,0.8492421899164863,0.6799435028248587,0.8492421899164863,0.6717514124293784,0.8492421899164863,0.6062146892655367,0.8492421899164863,0.6225988700564971,0.8492421899164863,0.290819209039548
430,0.851221775440767,0.40960451977401124,0.851221775440767,0.6799435028248587,0.851221775440767,0.6717514124293784,0.851221775440767,0.6062146892655367,0.851221775440767,0.6225988700564971,0.851221775440767,0.290819209039548
431,0.853201360965048,0.40960451977401124,0.853201360965048,0.6799435028248587,0.853201360965048,0.6717514124293784,0.853201360965048,0.6062146892655367,0.853201360965048,0.6225988700564971,0.853201360965048,0.290819209039548
432,0.8551809464893287,0.40960451977401124,0.8551809464893287,0.6799435028248587,0.8551809464893287,0.6758474576271185,0.8551809464893287,0.6062146892655367,0.8551809464893287,0.6225988700564971,0.8551809464893287,0.290819209039548
433,0.8571605320136096,0.40960451977401124,0.8571605320136096,0.6799435028248587,0.8571605320136096,0.6758474576271185,0.8571605320136096,0.6062146892655367,0.8571605320136096,0.6225988700564971,0.8571605320136096,0.2949152542372881
434,0.8591401175378905,0.40960451977401124,0.8591401175378905,0.6799435028248587,0.8591401175378905,0.6758474576271185,0.8591401175378905,0.6062146892655367,0.8591401175378905,0.6225988700564971,0.8591401175378905,0.2949152542372881
435,0.8611197030621713,0.40960451977401124,0.8611197030621713,0.6799435028248587,0.8611197030621713,0.6758474576271185,0.8611197030621713,0.6062146892655367,0.8611197030621713,0.6225988700564971,0.8611197030621713,0.2949152542372881
436,0.8630992885864522,0.41370056497175134,0.8630992885864522,0.6799435028248587,0.8630992885864522,0.6758474576271185,0.8630992885864522,0.6062146892655367,0.8630992885864522,0.6225988700564971,0.8630992885864522,0.2949152542372881
437,0.865078874110733,0.41370056497175134,0.865078874110733,0.6799435028248587,0.865078874110733,0.6758474576271185,0.865078874110733,0.6062146892655367,0.865078874110733,0.6225988700564971,0.865078874110733,0.2949152542372881
438,0.8670584596350139,0.41370056497175134,0.8670584596350139,0.6799435028248587,0.8670584596350139,0.6758474576271185,0.8670584596350139,0.6062146892655367,0.8670584596350139,0.6225988700564971,0.8670584596350139,0.2949152542372881
439,0.8690380451592947,0.41370056497175134,0.8690380451592947,0.6799435028248587,0.8690380451592947,0.6758474576271185,0.8690380451592947,0.6062146892655367,0.8690380451592947,0.6225988700564971,0.8690380451592947,0.2949152542372881
440,0.8710176306835756,0.41370056497175134,0.8710176306835756,0.6840395480225988,0.8710176306835756,0.6758474576271185,0.8710176306835756,0.6103107344632768,0.8710176306835756,0.6225988700564971,0.8710176306835756,0.2949152542372881
441,0.8729972162078565,0.41370056497175134,0.8729972162078565,0.6840395480225988,0.8729972162078565,0.6758474576271185,0.8729972162078565,0.6103107344632768,0.8729972162078565,0.6225988700564971,0.8729972162078565,0.2949152542372881
442,0.8749768017321373,0.4177966101694915,0.8749768017321373,0.6840395480225988,0.8749768017321373,0.6758474576271185,0.8749768017321373,0.6103107344632768,0.8749768017321373,0.6225988700564971,0.8749768017321373,0.2949152542372881
443,0.8769563872564182,0.4177966101694915,0.8769563872564182,0.6881355932203389,0.8769563872564182,0.6758474576271185,0.8769563872564182,0.6103107344632768,0.8769563872564182,0.6225988700564971,0.8769563872564182,0.2949152542372881
444,0.878935972780699,0.4177966101694915,0.878935972780699,0.6881355932203389,0.878935972780699,0.6758474576271185,0.878935972780699,0.6103107344632768,0.878935972780699,0.6225988700564971,0.878935972780699,0.2949152542372881
445,0.8809155583049799,0.4177966101694915,0.8809155583049799,0.6881355932203389,0.8809155583049799,0.6758474576271185,0.8809155583049799,0.6144067796610169,0.8809155583049799,0.6225988700564971,0.8809155583049799,0.2949152542372881
446,0.8828951438292607,0.4177966101694915,0.8828951438292607,0.6881355932203389,0.8828951438292607,0.6758474576271185,0.8828951438292607,0.6144067796610169,0.8828951438292607,0.6225988700564971,0.8828951438292607,0.2949152542372881
447,0.8848747293535416,0.4177966101694915,0.8848747293535416,0.6881355932203389,0.8848747293535416,0.6758474576271185,0.8848747293535416,0.6144067796610169,0.8848747293535416,0.6225988700564971,0.8848747293535416,0.2949152542372881
448,0.8868543148778224,0.4177966101694915,0.8868543148778224,0.6881355932203389,0.8868543148778224,0.6758474576271185,0.8868543148778224,0.618502824858757,0.8868543148778224,0.6225988700564971,0.8868543148778224,0.2949152542372881
449,0.8888339004021033,0.4177966101694915,0.8888339004021033,0.6881355932203389,0.8888339004021033,0.6758474576271185,0.8888339004021033,0.618502824858757,0.8888339004021033,0.6225988700564971,0.8888339004021033,0.2949152542372881
450,0.8908134859263842,0.4177966101694915,0.8908134859263842,0.6881355932203389,0.8908134859263842,0.6758474576271185,0.8908134859263842,0.618502824858757,0.8908134859263842,0.6225988700564971,0.8908134859263842,0.2949152542372881
451,0.892793071450665,0.4177966101694915,0.892793071450665,0.6881355932203389,0.892793071450665,0.6758474576271185,0.892793071450665,0.618502824858757,0.892793071450665,0.6225988700564971,0.892793071450665,0.2949152542372881
452,0.8947726569749459,0.4177966101694915,0.8947726569749459,0.6881355932203389,0.8947726569749459,0.6758474576271185,0.8947726569749459,0.618502824858757,0.8947726569749459,0.6225988700564971,0.8947726569749459,0.2990112994350282
453,0.8967522424992267,0.4177966101694915,0.8967522424992267,0.6881355932203389,0.8967522424992267,0.6758474576271185,0.8967522424992267,0.618502824858757,0.8967522424992267,0.6225988700564971,0.8967522424992267,0.2990112994350282
454,0.8987318280235076,0.4177966101694915,0.8987318280235076,0.6881355932203389,0.8987318280235076,0.6758474576271185,0.8987318280235076,0.618502824858757,0.8987318280235076,0.6266949152542373,0.8987318280235076,0.2990112994350282
455,0.9007114135477884,0.4177966101694915,0.9007114135477884,0.6881355932203389,0.9007114135477884,0.6758474576271185,0.9007114135477884,0.618502824858757,0.9007114135477884,0.6266949152542373,0.9007114135477884,0.2990112994350282
456,0.9026909990720693,0.4177966101694915,0.9026909990720693,0.6881355932203389,0.9026909990720693,0.6758474576271185,0.9026909990720693,0.618502824858757,0.9026909990720693,0.6266949152542373,0.9026909990720693,0.2990112994350282
457,0.9046705845963502,0.4177966101694915,0.9046705845963502,0.6881355932203389,0.9046705845963502,0.6758474576271185,0.9046705845963502,0.618502824858757,0.9046705845963502,0.6266949152542373,0.9046705845963502,0.2990112994350282
458,0.906650170120631,0.4177966101694915,0.906650170120631,0.6881355932203389,0.906650170120631,0.6758474576271185,0.906650170120631,0.618502824858757,0.906650170120631,0.6266949152542373,0.906650170120631,0.2990112994350282
459,0.9086297556449119,0.4218926553672316,0.9086297556449119,0.6881355932203389,0.9086297556449119,0.6758474576271185,0.9086297556449119,0.618502824858757,0.9086297556449119,0.6266949152542373,0.9086297556449119,0.2990112994350282
460,0.9106093411691927,0.4218926553672316,0.9106093411691927,0.6881355932203389,0.9106093411691927,0.6717514124293784,0.9106093411691927,0.618502824858757,0.9106093411691927,0.6266949152542373,0.9106093411691927,0.2990112994350282
461,0.9125889266934736,0.4218926553672316,0.9125889266934736,0.6881355932203389,0.9125889266934736,0.6717514124293784,0.9125889266934736,0.618502824858757,0.9125889266934736,0.6266949152542373,0.9125889266934736,0.2990112994350282
462,0.9145685122177544,0.4218926553672316,0.9145685122177544,0.6881355932203389,0.9145685122177544,0.6717514124293784,0.9145685122177544,0.618502824858757,0.9145685122177544,0.6266949152542373,0.9145685122177544,0.2990112994350282
463,0.9165480977420353,0.4218926553672316,0.9165480977420353,0.6881355932203389,0.9165480977420353,0.6717514124293784,0.9165480977420353,0.618502824858757,0.9165480977420353,0.6266949152542373,0.9165480977420353,0.2990112994350282
464,0.9185276832663161,0.4218926553672316,0.9185276832663161,0.6881355932203389,0.9185276832663161,0.6717514124293784,0.9185276832663161,0.618502824858757,0.9185276832663161,0.6266949152542373,0.9185276832663161,0.2990112994350282
465,0.920507268790597,0.4218926553672316,0.920507268790597,0.6881355932203389,0.920507268790597,0.6717514124293784,0.920507268790597,0.618502824858757,0.920507268790597,0.6266949152542373,0.920507268790597,0.2990112994350282
466,0.9224868543148779,0.4218926553672316,0.9224868543148779,0.6881355932203389,0.9224868543148779,0.6717514124293784,0.9224868543148779,0.618502824858757,0.9224868543148779,0.6266949152542373,0.9224868543148779,0.2990112994350282
467,0.9244664398391587,0.4218926553672316,0.9244664398391587,0.6881355932203389,0.9244664398391587,0.6717514124293784,0.9244664398391587,0.618502824858757,0.9244664398391587,0.6266949152542373,0.9244664398391587,0.2990112994350282
468,0.9264460253634396,0.4218926553672316,0.9264460253634396,0.6881355932203389,0.9264460253634396,0.6717514124293784,0.9264460253634396,0.618502824858757,0.9264460253634396,0.6266949152542373,0.9264460253634396,0.2990112994350282
469,0.9284256108877204,0.4218926553672316,0.9284256108877204,0.6881355932203389,0.9284256108877204,0.6717514124293784,0.9284256108877204,0.6144067796610169,0.9284256108877204,0.6266949152542373,0.9284256108877204,0.2990112994350282
470,0.9304051964120013,0.4218926553672316,0.9304051964120013,0.6881355932203389,0.9304051964120013,0.6717514124293784,0.9304051964120013,0.6144067796610169,0.9304051964120013,0.6266949152542373,0.9304051964120013,0.2990112994350282
471,0.932384781936282,0.4218926553672316,0.932384781936282,0.692231638418079,0.932384781936282,0.6717514124293784,0.932384781936282,0.6144067796610169,0.932384781936282,0.6266949152542373,0.932384781936282,0.2990112994350282
472,0.934364367460563,0.4218926553672316,0.934364367460563,0.692231638418079,0.934364367460563,0.6717514124293784,0.934364367460563,0.6144067796610169,0.934364367460563,0.6266949152542373,0.934364367460563,0.2990112994350282
473,0.9363439529848439,0.4218926553672316,0.9363439529848439,0.692231638418079,0.9363439529848439,0.6717514124293784,0.9363439529848439,0.6144067796610169,0.9363439529848439,0.6266949152542373,0.9363439529848439,0.2990112994350282
474,0.9383235385091246,0.4218926553672316,0.9383235385091246,0.6963276836158191,0.9383235385091246,0.6717514124293784,0.9383235385091246,0.6144067796610169,0.9383235385091246,0.6266949152542373,0.9383235385091246,0.2990112994350282
475,0.9403031240334055,0.4218926553672316,0.9403031240334055,0.6963276836158191,0.9403031240334055,0.6717514124293784,0.9403031240334055,0.6144067796610169,0.9403031240334055,0.6266949152542373,0.9403031240334055,0.2949152542372881
476,0.9422827095576863,0.4218926553672316,0.9422827095576863,0.6963276836158191,0.9422827095576863,0.5693502824858756,0.9422827095576863,0.6144067796610169,0.9422827095576863,0.6266949152542373,0.9422827095576863,0.290819209039548
477,0.9442622950819672,0.4218926553672316,0.9442622950819672,0.6963276836158191,0.9442622950819672,0.5611581920903954,0.9442622950819672,0.6144067796610169,0.9442622950819672,0.6266949152542373,0.9442622950819672,0.2949152542372881
478,0.946241880606248,0.4218926553672316,0.946241880606248,0.6963276836158191,0.946241880606248,0.47923728813559313,0.946241880606248,0.6144067796610169,0.946241880606248,0.6266949152542373,0.946241880606248,0.2990112994350282
479,0.9482214661305289,0.4218926553672316,0.9482214661305289,0.6963276836158191,0.9482214661305289,0.33997175141242936,0.9482214661305289,0.6144067796610169,0.9482214661305289,0.6225988700564971,0.9482214661305289,0.30310734463276834
480,0.9502010516548097,0.4218926553672316,0.9502010516548097,0.6963276836158191,0.9502010516548097,0.3358757062146892,0.9502010516548097,0.618502824858757,0.9502010516548097,0.6225988700564971,0.9502010516548097,0.30720338983050843
481,0.9521806371790906,0.4218926553672316,0.9521806371790906,0.6963276836158191,0.9521806371790906,0.3358757062146892,0.9521806371790906,0.618502824858757,0.9521806371790906,0.6225988700564971,0.9521806371790906,0.30720338983050843
482,0.9541602227033715,0.4218926553672316,0.9541602227033715,0.6963276836158191,0.9541602227033715,0.3358757062146892,0.9541602227033715,0.618502824858757,0.9541602227033715,0.6225988700564971,0.9541602227033715,0.30720338983050843
483,0.9561398082276523,0.4218926553672316,0.9561398082276523,0.6963276836158191,0.9561398082276523,0.3317796610169491,0.9561398082276523,0.618502824858757,0.9561398082276523,0.6225988700564971,0.9561398082276523,0.30720338983050843
484,0.9581193937519332,0.4218926553672316,0.9581193937519332,0.6963276836158191,0.9581193937519332,0.3317796610169491,0.9581193937519332,0.618502824858757,0.9581193937519332,0.6266949152542373,0.9581193937519332,0.31129943502824853
485,0.960098979276214,0.4259887005649717,0.960098979276214,0.6963276836158191,0.960098979276214,0.3317796610169491,0.960098979276214,0.618502824858757,0.960098979276214,0.6266949152542373,0.960098979276214,0.31129943502824853
486,0.9620785648004949,0.43008474576271183,0.9620785648004949,0.6963276836158191,0.9620785648004949,0.327683615819209,0.9620785648004949,0.618502824858757,0.9620785648004949,0.6266949152542373,0.9620785648004949,0.31129943502824853
487,0.9640581503247757,0.4341807909604519,0.9640581503247757,0.6963276836158191,0.9640581503247757,0.24985875706214686,0.9640581503247757,0.618502824858757,0.9640581503247757,0.6307909604519774,0.9640581503247757,0.31129943502824853
488,0.9660377358490566,0.4341807909604519,0.9660377358490566,0.6963276836158191,0.9660377358490566,0.061440677966101684,0.9660377358490566,0.618502824858757,0.9660377358490566,0.6307909604519774,0.9660377358490566,0.31129943502824853
489,0.9680173213733374,0.438276836158192,0.9680173213733374,0.6963276836158191,0.9680173213733374,0.04096045197740113,0.9680173213733374,0.618502824858757,0.9680173213733374,0.6307909604519774,0.9680173213733374,0.31129943502824853
490,0.9699969068976183,0.438276836158192,0.9699969068976183,0.6963276836158191,0.9699969068976183,0.0327683615819209,0.9699969068976183,0.618502824858757,0.9699969068976183,0.5324858757062146,0.9699969068976183,0.31129943502824853
491,0.9719764924218992,0.438276836158192,0.9719764924218992,0.6963276836158191,0.9719764924218992,0.024576271186440676,0.9719764924218992,0.618502824858757,0.9719764924218992,0.5324858757062146,0.9719764924218992,0.31129943502824853
492,0.97395607794618,0.438276836158192,0.97395607794618,0.6963276836158191,0.97395607794618,0.024576271186440676,0.97395607794618,0.618502824858757,0.97395607794618,0.5283898305084745,0.97395607794618,0.31129943502824853
493,0.9759356634704609,0.438276836158192,0.9759356634704609,0.6963276836158191,0.9759356634704609,0.020480225988700564,0.9759356634704609,0.618502824858757,0.9759356634704609,0.5283898305084745,0.9759356634704609,0.31129943502824853
494,0.9779152489947417,0.438276836158192,0.9779152489947417,0.692231638418079,0.9779152489947417,0.020480225988700564,0.9779152489947417,0.618502824858757,0.9779152489947417,0.5283898305084745,0.9779152489947417,0.31129943502824853
495,0.9798948345190226,0.438276836158192,0.9798948345190226,0.692231638418079,0.9798948345190226,0.020480225988700564,0.9798948345190226,0.618502824858757,0.9798948345190226,0.5283898305084745,0.9798948345190226,0.31129943502824853
496,0.9818744200433034,0.438276836158192,0.9818744200433034,0.6881355932203389,0.9818744200433034,0.024576271186440676,0.9818744200433034,0.618502824858757,0.9818744200433034,0.5283898305084745,0.9818744200433034,0.31129943502824853
497,0.9838540055675843,0.438276836158192,0.9838540055675843,0.692231638418079,0.9838540055675843,0.024576271186440676,0.9838540055675843,0.618502824858757,0.9838540055675843,0.07372881355932202,0.9838540055675843,0.31129943502824853
498,0.9858335910918652,0.438276836158192,0.9858335910918652,0.6963276836158191,0.9858335910918652,0.024576271186440676,0.9858335910918652,0.618502824858757,0.9858335910918652,0.0655367231638418,0.9858335910918652,0.31129943502824853
499,0.987813176616146,0.438276836158192,0.987813176616146,0.7004237288135592,0.987813176616146,0.028672316384180788,0.987813176616146,0.6144067796610169,0.987813176616146,0.057344632768361575,0.987813176616146,0.3153954802259887
500,0.9897927621404269,0.438276836158192,0.9897927621404269,0.7045197740112994,0.9897927621404269,0.0327683615819209,0.9897927621404269,0.6144067796610169,0.9897927621404269,0.04915254237288135,0.9897927621404269,0.3153954802259887
501,0.9917723476647077,0.438276836158192,0.9917723476647077,0.7045197740112994,0.9917723476647077,0.045056497175141236,0.9917723476647077,0.6144067796610169,0.9917723476647077,0.045056497175141236,0.9917723476647077,0.3194915254237288
502,0.9937519331889886,0.438276836158192,0.9937519331889886,0.7086158192090395,0.9937519331889886,0.08192090395480225,0.9937519331889886,0.6144067796610169,0.9937519331889886,0.04096045197740113,0.9937519331889886,0.3194915254237288
503,0.9957315187132694,0.438276836158192,0.9957315187132694,0.7086158192090395,0.9957315187132694,0.22118644067796608,0.9957315187132694,0.6144067796610169,0.9957315187132694,0.03686440677966101,0.9957315187132694,0.32358757062146887
504,0.9977111042375503,0.44237288135593217,0.9977111042375503,0.7086158192090395,0.9977111042375503,0.3317796610169491,0.9977111042375503,0.618502824858757,0.9977111042375503,0.0327683615819209,0.9977111042375503,0.32358757062146887
505,0.9996906897618311,0.44237288135593217,0.9996906897618311,0.7127118644067796,0.9996906897618311,0.3358757062146892,0.9996906897618311,0.618502824858757,0.9996906897618311,0.0327683615819209,0.9996906897618311,0.32358757062146887
506,1.001670275286112,0.44646892655367226,1.001670275286112,0.7127118644067796,1.001670275286112,0.33997175141242936,1.001670275286112,0.6225988700564971,1.001670275286112,0.028672316384180788,1.001670275286112,0.327683615819209
507,1.0036498608103928,0.45056497175141236,1.0036498608103928,0.7168079096045197,1.0036498608103928,0.33997175141242936,1.0036498608103928,0.6266949152542373,1.0036498608103928,0.028672316384180788,1.0036498608103928,0.327683615819209
508,1.0056294463346738,0.4546610169491525,1.0056294463346738,0.7168079096045197,1.0056294463346738,0.34406779661016945,1.0056294463346738,0.6307909604519774,1.0056294463346738,0.028672316384180788,1.0056294463346738,0.3317796610169491
